Sample_Index,ADC_Value
0,1676
1,2420
2,2336
3,1609
4,1663
5,2416
6,2541
7,1805
8,1650
9,2382
10,2677
11,1984
12,1680
13,2367
14,2873
15,2269
16,1787
17,2341
18,2975
19,2475
20,1841
21,2288
22,3012
23,2671
24,1946
25,2165
26,2875
27,2691
28,1862
29,1834
30,2497
31,2470
32,1643
33,1445
34,2112
35,2304
36,1514
37,1161
38,1785
39,2163
40,1490
41,1010
42,1565
43,2126
44,1595
45,976
46,1409
47,2067
48,1708
49,1012
50,1291
51,2021
52,1855
53,1090
54,1191
55,1946
56,1968
57,1219
58,1140
59,1887
60,2128
61,1380
62,1086
63,1760
64,2147
65,1489
66,1073
67,1680
68,2220
69,1666
70,1074
71,1535
72,2178
73,1795
74,1108
75,1391
76,2133
77,1936
78,1199
79,1319
80,2055
81,2022
82,1263
83,1202
84,1955
85,2150
86,1379
87,1120
88,1822
89,2181
90,1503
91,1101
92,1715
93,2251
94,1681
95,1102
96,1584
97,2206
98,1787
99,1117
100,1442
101,2174
102,1937
103,1203
104,1362
105,2109
106,2056
107,1282
108,1270
109,2022
110,2160
111,1394
112,1190
113,1904
114,2247
115,1535
116,1156
117,1795
118,2278
119,1681
120,1161
121,1679
122,2289
123,1841
124,1168
125,1522
126,2225
127,1954
128,1232
129,1428
130,2179
131,2112
132,1332
133,1338
134,2093
135,2182
136,1424
137,1250
138,1982
139,2294
140,1605
141,1274
142,1947
143,2435
144,1839
145,1314
146,1833
147,2419
148,1953
149,1338
150,1767
151,2480
152,2160
153,1391
154,1558
155,2260
156,2124
157,1365
158,1402
159,2151
160,2214
161,1438
162,1280
163,1998
164,2278
165,1535
166,1200
167,1862
168,2278
169,1660
170,1190
171,1759
172,2327
173,1831
174,1215
175,1636
176,2288
177,1909
178,1155
179,1424
180,2299
181,2478
182,2229
183,2901
184,4095
185,4095
186,3958
187,3490
188,3722
189,3003
190,1683
191,1136
192,1824
193,2324
194,1755
195,1317
196,1901
197,2437
198,1885
199,1246
200,1679
201,2305
202,1938
203,1263
204,1568
205,2293
206,2119
207,1365
208,1483
209,2231
210,2246
211,1487
212,1411
213,2160
214,2342
215,1610
216,1355
217,2064
218,2454
219,1795
220,1364
221,1971
222,2516
223,1979
224,1421
225,1882
226,2530
227,2143
228,1481
229,1821
230,2551
231,2347
232,1618
233,1776
234,2550
235,2557
236,1797
237,1762
238,2536
239,2733
240,2015
241,1814
242,2551
243,2960
244,2277
245,1889
246,2519
247,3120
248,2480
249,1920
250,2417
251,3097
252,2608
253,1891
254,2176
255,2817
256,2462
257,1654
258,1751
259,2415
260,2274
261,1424
262,1344
263,2062
264,2143
265,1343
266,1104
267,1819
268,2117
269,1396
270,1008
271,1645
272,2131
273,1520
274,982
275,1520
276,2124
277,1657
278,1005
279,1391
280,2096
281,1807
282,1074
283,1271
284,2032
285,1952
286,1195
287,1216
288,1970
289,2070
290,1302
291,1136
292,1843
293,2128
294,1415
295,1081
296,1758
297,2234
298,1614
299,1090
300,1628
301,2199
302,1728
303,1108
304,1519
305,2174
306,1842
307,1130
308,1378
309,2128
310,2000
311,1232
312,1283
313,2034
314,2110
315,1308
316,1168
317,1915
318,2159
319,1425
320,1117
321,1805
322,2245
323,1600
324,1104
325,1675
326,2248
327,1712
328,1103
329,1535
330,2209
331,1841
332,1135
333,1431
334,2209
335,2031
336,1239
337,1328
338,2128
339,2172
340,1347
341,1209
342,2005
343,2242
344,1465
345,1167
346,1901
347,2343
348,1648
349,1155
350,1749
351,2347
352,1776
353,1136
354,1623
355,2330
356,1936
357,1191
358,1489
359,2268
360,2076
361,1275
362,1389
363,2173
364,2196
365,1426
366,1342
367,2141
368,2336
369,1587
370,1321
371,2022
372,2398
373,1728
374,1338
375,1965
376,2477
377,1874
378,1269
379,1731
380,2364
381,1944
382,1254
383,1577
384,2258
385,2002
386,1237
387,1386
388,2145
389,2126
390,1345
391,1306
392,2080
393,2239
394,1456
395,1223
396,1933
397,2256
398,1573
399,1194
400,1824
401,2307
402,1677
403,1136
404,1776
405,2708
406,2785
407,2681
408,3829
409,4095
410,4095
411,3290
412,2864
413,2922
414,2305
415,1292
416,1270
417,2086
418,2256
419,1507
420,1328
421,2047
422,2343
423,1618
424,1233
425,1870
426,2340
427,1735
428,1201
429,1736
430,2344
431,1887
432,1259
433,1653
434,2355
435,2065
436,1328
437,1535
438,2290
439,2181
440,1413
441,1455
442,2219
443,2310
444,1561
445,1413
446,2153
447,2448
448,1728
449,1390
450,2060
451,2483
452,1882
453,1402
454,1979
455,2559
456,2097
457,1489
458,1920
459,2634
460,2331
461,1637
462,1893
463,2655
464,2535
465,1803
466,1904
467,2684
468,2764
469,2000
470,1891
471,2649
472,2953
473,2178
474,1867
475,2521
476,2947
477,2224
478,1679
479,2176
480,2644
481,2042
482,1361
483,1727
484,2315
485,1881
486,1113
487,1335
488,2023
489,1817
490,1033
491,1107
492,1851
493,1866
494,1079
495,955
496,1687
497,1891
498,1136
499,849
500,1562
501,1936
502,1267
503,839
504,1431
505,1973
506,1417
507,830
508,1302
509,1949
510,1558
511,873
512,1191
513,1916
514,1702
515,953
516,1089
517,1847
518,1833
519,1053
520,976
521,1738
522,1899
523,1151
524,912
525,1620
526,1971
527,1275
528,849
529,1472
530,1987
531,1397
532,826
533,1326
534,1937
535,1506
536,837
537,1182
538,1898
539,1650
540,898
541,1046
542,1777
543,1714
544,943
545,926
546,1695
547,1809
548,1055
549,838
550,1563
551,1901
552,1233
553,785
554,1411
555,1897
556,1296
557,774
558,1306
559,1903
560,1433
561,787
562,1161
563,1856
564,1586
565,846
566,1040
567,1776
568,1676
569,912
570,931
571,1680
572,1769
573,1008
574,832
575,1555
576,1842
577,1105
578,765
579,1427
580,1864
581,1242
582,742
583,1297
584,1874
585,1383
586,752
587,1142
588,1840
589,1535
590,807
591,1023
592,1761
593,1641
594,898
595,978
596,1765
597,1845
598,1099
599,942
600,1655
601,1918
602,1201
603,897
604,1598
605,2007
606,1348
607,816
608,1330
609,1883
610,1380
611,784
612,1201
613,1840
614,1455
615,752
616,1005
617,1713
618,1526
619,779
620,867
621,1632
622,1675
623,912
624,803
625,1533
626,1748
627,1008
628,717
629,1393
630,1790
631,1105
632,627
633,1251
634,1981
635,1823
636,1775
637,2816
638,4095
639,3910
640,2768
641,2688
642,2853
643,2080
644,930
645,877
646,1654
647,1713
648,992
649,937
650,1664
651,1815
652,1047
653,789
654,1485
655,1866
656,1181
657,750
658,1353
659,1867
660,1326
661,784
662,1264
663,1901
664,1490
665,827
666,1177
667,1890
668,1671
669,949
670,1107
671,1855
672,1824
673,1088
674,1063
675,1808
676,1969
677,1230
678,1034
679,1747
680,2064
681,1376
682,1014
683,1681
684,2194
685,1629
686,1117
687,1645
688,2288
689,1875
690,1250
691,1647
692,2370
693,2133
694,1447
695,1680
696,2448
697,2384
698,1632
699,1648
700,2434
701,2583
702,1847
703,1662
704,2370
705,2655
706,1917
707,1509
708,2091
709,2491
710,1794
711,1184
712,1626
713,2129
714,1589
715,893
716,1242
717,1876
718,1523
719,785
720,983
721,1746
722,1623
723,817
724,827
725,1600
726,1669
727,906
728,755
729,1501
730,1776
731,1043
732,708
733,1391
734,1871
735,1232
736,735
737,1302
738,1900
739,1381
740,759
741,1227
742,2013
743,1642
744,805
745,1061
746,1968
747,1857
748,955
749,978
750,1900
751,1984
752,1083
753,880
754,1753
755,2099
756,1260
757,858
758,1659
759,2193
760,1453
761,863
762,1509
763,2199
764,1610
765,880
766,1358
767,2178
768,1798
769,971
770,1247
771,2142
772,1966
773,1071
774,1153
775,2033
776,2064
777,1176
778,1040
779,1926
780,2214
781,1361
782,1008
783,1762
784,2207
785,1507
786,1038
787,1659
788,2210
789,1649
790,1056
791,1535
792,2231
793,1840
794,1138
795,1437
796,2174
797,1961
798,1187
799,1298
800,2123
801,2106
802,1330
803,1274
804,2032
805,2221
806,1451
807,1195
808,1914
809,2294
810,1600
811,1183
812,1815
813,2341
814,1771
815,1204
816,1708
817,2373
818,1951
819,1243
820,1573
821,2307
822,2079
823,1374
824,1582
825,2382
826,2353
827,1562
828,1507
829,2287
830,2443
831,1696
832,1493
833,2222
834,2532
835,1791
836,1360
837,1998
838,2498
839,1899
840,1328
841,1821
842,2421
843,1957
844,1297
845,1649
846,2364
847,2097
848,1374
849,1571
850,2311
851,2240
852,1467
853,1467
854,2230
855,2339
856,1578
857,1392
858,2090
859,2369
860,1648
861,1385
862,2301
863,3313
864,3295
865,3386
866,4095
867,4095
868,4095
869,3339
870,2985
871,2928
872,2145
873,1301
874,1597
875,2461
876,2387
877,1643
878,1664
879,2383
880,2426
881,1645
882,1486
883,2240
884,2515
885,1790
886,1456
887,2128
888,2559
889,1936
890,1456
891,2010
892,2595
893,2096
894,1491
895,1921
896,2607
897,2275
898,1580
899,1841
900,2559
901,2416
902,1680
903,1755
904,2502
905,2587
906,1849
907,1749
908,2483
909,2729
910,2006
911,1738
912,2418
913,2863
914,2225
915,1797
916,2395
917,3024
918,2497
919,1937
920,2394
921,3146
922,2767
923,2099
924,2386
925,3226
926,3024
927,2267
928,2384
929,3243
930,3298
931,2423
932,2299
933,3039
934,3248
935,2339
936,1982
937,2589
938,2899
939,2160
940,1662
941,2175
942,2639
943,2030
944,1413
945,1824
946,2410
947,1979
948,1291
949,1599
950,2279
951,2064
952,1335
953,1474
954,2199
955,2178
956,1424
957,1365
958,2097
959,2244
960,1517
961,1309
962,2005
963,2335
964,1672
965,1296
966,1904
967,2407
968,1851
969,1322
970,1808
971,2394
972,1971
973,1349
974,1671
975,2407
976,2165
977,1454
978,1623
979,2351
980,2298
981,1520
982,1523
983,2256
984,2381
985,1658
986,1472
987,2166
988,2480
989,1803
990,1441
991,2061
992,2497
993,1904
994,1408
995,1927
996,2522
997,2075
998,1451
999,1812
1000,2493
1001,2222
1002,1511
1003,1696
1004,2416
1005,2326
1006,1574
1007,1600
1008,2347
1009,2433
1010,1706
1011,1535
1012,2247
1013,2512
1014,1810
1015,1477
1016,2110
1017,2559
1018,1955
1019,1459
1020,2000
1021,2586
1022,2111
1023,1488
1024,1883
1025,2543
1026,2215
1027,1523
1028,1749
1029,2499
1030,2394
1031,1648
1032,1687
1033,2421
1034,2480
1035,1738
1036,1607
1037,2356
1038,2647
1039,1948
1040,1648
1041,2304
1042,2745
1043,2099
1044,1622
1045,2189
1046,2770
1047,2283
1048,1677
1049,2047
1050,2669
1051,2295
1052,1598
1053,1857
1054,2591
1055,2418
1056,1636
1057,1687
1058,2429
1059,2455
1060,1699
1061,1574
1062,2304
1063,2519
1064,1803
1065,1520
1066,2209
1067,2620
1068,1963
1069,1492
1070,2071
1071,2613
1072,2074
1073,1454
1074,1855
1075,2481
1076,2199
1077,1771
1078,2483
1079,4095
1080,4095
1081,4095
1082,4095
1083,4095
1084,4095
1085,3005
1086,2288
1087,2496
1088,2465
1089,1723
1090,1535
1091,2310
1092,2723
1093,2017
1094,1535
1095,2118
1096,2669
1097,2090
1098,1486
1099,1964
1100,2645
1101,2245
1102,1527
1103,1840
1104,2605
1105,2376
1106,1601
1107,1726
1108,2514
1109,2519
1110,1749
1111,1690
1112,2481
1113,2698
1114,1911
1115,1648
1116,2373
1117,2751
1118,2039
1119,1617
1120,2278
1121,2861
1122,2261
1123,1697
1124,2205
1125,2918
1126,2480
1127,1779
1128,2126
1129,2899
1130,2650
1131,1906
1132,2102
1133,2951
1134,2935
1135,2147
1136,2128
1137,2977
1138,3229
1139,2351
1140,2127
1141,2922
1142,3438
1143,2559
1144,2165
1145,2843
1146,3558
1147,2718
1148,2103
1149,2559
1150,3261
1151,2629
1152,1842
1153,2127
1154,2801
1155,2431
1156,1587
1157,1706
1158,2432
1159,2300
1160,1451
1161,1402
1162,2176
1163,2301
1164,1497
1165,1290
1166,2034
1167,2349
1168,1599
1169,1213
1170,1886
1171,2358
1172,1699
1173,1158
1174,1728
1175,2370
1176,1882
1177,1210
1178,1615
1179,2352
1180,2031
1181,1264
1182,1475
1183,2259
1184,2158
1185,1355
1186,1391
1187,2201
1188,2283
1189,1483
1190,1308
1191,2062
1192,2365
1193,1609
1194,1255
1195,1953
1196,2434
1197,1774
1198,1234
1199,1808
1200,2410
1201,1886
1202,1221
1203,1658
1204,2384
1205,2044
1206,1296
1207,1534
1208,2320
1209,2179
1210,1367
1211,1426
1212,2219
1213,2256
1214,1443
1215,1293
1216,2096
1217,2348
1218,1578
1219,1245
1220,1943
1221,2401
1222,1724
1223,1202
1224,1792
1225,2377
1226,1834
1227,1200
1228,1652
1229,2343
1230,1967
1231,1231
1232,1513
1233,2277
1234,2086
1235,1295
1236,1382
1237,2182
1238,2210
1239,1408
1240,1296
1241,2079
1242,2299
1243,1521
1244,1235
1245,1951
1246,2343
1247,1650
1248,1181
1249,1808
1250,2385
1251,1826
1252,1214
1253,1686
1254,2355
1255,1956
1256,1248
1257,1574
1258,2321
1259,2103
1260,1323
1261,1456
1262,2242
1263,2240
1264,1441
1265,1367
1266,2151
1267,2332
1268,1535
1269,1265
1270,1989
1271,2352
1272,1651
1273,1229
1274,1901
1275,2479
1276,1918
1277,1345
1278,1849
1279,2493
1280,2045
1281,1345
1282,1705
1283,2467
1284,2237
1285,1451
1286,1563
1287,2293
1288,2219
1289,1417
1290,1321
1291,2141
1292,2288
1293,1475
1294,1238
1295,1987
1296,2321
1297,1617
1298,1221
1299,1875
1300,2397
1301,1773
1302,1196
1303,1713
1304,2367
1305,1895
1306,1191
1307,1529
1308,2270
1309,1966
1310,1186
1311,1331
1312,2092
1313,2070
1314,1461
1315,1846
1316,3307
1317,4095
1318,3783
1319,3524
1320,4095
1321,4047
1322,2432
1323,1507
1324,1802
1325,2162
1326,1535
1327,1065
1328,1648
1329,2288
1330,1798
1331,1111
1332,1459
1333,2143
1334,1823
1335,1045
1336,1295
1337,2059
1338,1927
1339,1151
1340,1178
1341,1973
1342,2086
1343,1294
1344,1118
1345,1860
1346,2134
1347,1406
1348,1067
1349,1744
1350,2171
1351,1533
1352,1073
1353,1652
1354,2247
1355,1746
1356,1118
1357,1533
1358,2239
1359,1918
1360,1216
1361,1457
1362,2174
1363,2047
1364,1327
1365,1420
1366,2198
1367,2269
1368,1531
1369,1434
1370,2189
1371,2446
1372,1728
1373,1449
1374,2154
1375,2559
1376,1968
1377,1535
1378,2149
1379,2710
1380,2193
1381,1623
1382,2071
1383,2734
1384,2352
1385,1633
1386,1857
1387,2525
1388,2279
1389,1441
1390,1461
1391,2122
1392,2032
1393,1197
1394,1023
1395,1712
1396,1861
1397,1077
1398,767
1399,1421
1400,1795
1401,1106
1402,651
1403,1214
1404,1739
1405,1178
1406,606
1407,1043
1408,1674
1409,1296
1410,642
1411,944
1412,1670
1413,1463
1414,734
1415,851
1416,1615
1417,1603
1418,834
1419,764
1420,1515
1421,1687
1422,969
1423,750
1424,1453
1425,1819
1426,1145
1427,729
1428,1323
1429,1840
1430,1287
1431,737
1432,1206
1433,1841
1434,1437
1435,848
1436,1118
1437,1809
1438,1574
1439,852
1440,991
1441,1740
1442,1707
1443,955
1444,931
1445,1671
1446,1819
1447,1077
1448,847
1449,1535
1450,1841
1451,1153
1452,790
1453,1415
1454,1905
1455,1328
1456,805
1457,1300
1458,1905
1459,1466
1460,833
1461,1169
1462,1840
1463,1575
1464,871
1465,1073
1466,1806
1467,1719
1468,977
1469,976
1470,1717
1471,1840
1472,1098
1473,907
1474,1613
1475,1889
1476,1195
1477,862
1478,1497
1479,1941
1480,1344
1481,854
1482,1391
1483,1959
1484,1503
1485,873
1486,1241
1487,1919
1488,1633
1489,935
1490,1153
1491,1864
1492,1746
1493,1008
1494,1053
1495,1778
1496,1847
1497,1107
1498,967
1499,1693
1500,1969
1501,1262
1502,927
1503,1578
1504,1986
1505,1385
1506,914
1507,1457
1508,2002
1509,1527
1510,954
1511,1387
1512,2070
1513,1767
1514,1099
1515,1344
1516,2042
1517,1898
1518,1169
1519,1242
1520,2001
1521,2076
1522,1329
1523,1193
1524,1861
1525,2078
1526,1363
1527,1072
1528,1713
1529,2094
1530,1424
1531,958
1532,1531
1533,2047
1534,1530
1535,950
1536,1389
1537,2042
1538,1703
1539,1037
1540,1303
1541,2017
1542,1838
1543,1104
1544,1200
1545,1934
1546,1925
1547,1159
1548,1044
1549,1774
1550,2075
1551,1608
1552,1793
1553,3086
1554,4095
1555,3962
1556,3253
1557,3645
1558,3699
1559,2332
1560,1296
1561,1497
1562,2071
1563,1702
1564,1072
1565,1398
1566,2128
1567,1927
1568,1185
1569,1308
1570,2041
1571,2005
1572,1237
1573,1183
1574,1936
1575,2096
1576,1351
1577,1138
1578,1846
1579,2224
1580,1535
1581,1136
1582,1744
1583,2247
1584,1691
1585,1150
1586,1637
1587,2255
1588,1840
1589,1198
1590,1535
1591,2268
1592,2055
1593,1340
1594,1509
1595,2263
1596,2221
1597,1466
1598,1458
1599,2234
1600,2402
1601,1682
1602,1490
1603,2217
1604,2559
1605,1915
1606,1567
1607,2215
1608,2731
1609,2156
1610,1648
1611,2185
1612,2835
1613,2413
1614,1808
1615,2188
1616,2931
1617,2669
1618,1948
1619,2128
1620,2865
1621,2779
1622,1987
1623,1936
1624,2623
1625,2661
1626,1843
1627,1584
1628,2197
1629,2393
1630,1615
1631,1185
1632,1759
1633,2177
1634,1534
1635,1005
1636,1491
1637,2031
1638,1534
1639,910
1640,1279
1641,1937
1642,1631
1643,913
1644,1145
1645,1880
1646,1776
1647,1031
1648,1059
1649,1801
1650,1889
1651,1138
1652,992
1653,1713
1654,1970
1655,1264
1656,951
1657,1627
1658,2071
1659,1455
1660,979
1661,1526
1662,2096
1663,1614
1664,995
1665,1414
1666,2065
1667,1731
1668,1059
1669,1323
1670,2047
1671,1902
1672,1153
1673,1231
1674,1971
1675,2032
1676,1264
1677,1140
1678,1860
1679,2091
1680,1375
1681,1089
1682,1755
1683,2149
1684,1515
1685,1056
1686,1637
1687,2189
1688,1674
1689,1082
1690,1521
1691,2176
1692,1811
1693,1131
1694,1398
1695,2128
1696,1915
1697,1209
1698,1311
1699,2036
1700,2069
1701,1328
1702,1259
1703,1986
1704,2203
1705,1467
1706,1204
1707,1874
1708,2246
1709,1585
1710,1150
1711,1756
1712,2272
1713,1745
1714,1200
1715,1667
1716,2288
1717,1911
1718,1241
1719,1529
1720,2240
1721,2032
1722,1306
1723,1435
1724,2176
1725,2155
1726,1419
1727,1377
1728,2109
1729,2279
1730,1535
1731,1296
1732,1987
1733,2347
1734,1682
1735,1277
1736,1889
1737,2379
1738,1817
1739,1280
1740,1776
1741,2377
1742,1968
1743,1305
1744,1651
1745,2360
1746,2128
1747,1393
1748,1553
1749,2286
1750,2229
1751,1488
1752,1477
1753,2224
1754,2401
1755,1690
1756,1508
1757,2228
1758,2544
1759,1854
1760,1473
1761,2114
1762,2605
1763,2039
1764,1529
1765,2000
1766,2554
1767,2071
1768,1417
1769,1781
1770,2476
1771,2201
1772,1456
1773,1627
1774,2337
1775,2238
1776,1473
1777,1475
1778,2224
1779,2347
1780,1591
1781,1415
1782,2125
1783,2400
1784,1712
1785,1372
1786,2015
1787,2475
1788,1870
1789,1347
1790,1840
1791,2387
1792,1968
1793,1535
1794,2295
1795,3831
1796,4095
1797,3920
1798,4095
1799,4095
1800,4095
1801,2901
1802,2331
1803,2491
1804,2285
1805,1510
1806,1450
1807,2239
1808,2539
1809,1835
1810,1485
1811,2109
1812,2518
1813,1883
1814,1397
1815,1949
1816,2509
1817,2007
1818,1399
1819,1830
1820,2498
1821,2170
1822,1469
1823,1723
1824,2452
1825,2320
1826,1575
1827,1654
1828,2386
1829,2433
1830,1704
1831,1600
1832,2330
1833,2552
1834,1846
1835,1570
1836,2241
1837,2674
1838,2041
1839,1600
1840,2179
1841,2739
1842,2210
1843,1642
1844,2099
1845,2768
1846,2418
1847,1753
1848,2062
1849,2821
1850,2682
1851,1952
1852,2065
1853,2846
1854,2906
1855,2166
1856,2111
1857,2875
1858,3148
1859,2355
1860,2112
1861,2813
1862,3334
1863,2547
1864,2096
1865,2640
1866,3194
1867,2485
1868,1822
1869,2192
1870,2739
1871,2268
1872,1526
1873,1774
1874,2409
1875,2146
1876,1358
1877,1429
1878,2129
1879,2083
1880,1291
1881,1230
1882,1957
1883,2099
1884,1363
1885,1136
1886,1826
1887,2160
1888,1471
1889,1072
1890,1686
1891,2199
1892,1639
1893,1087
1894,1572
1895,2204
1896,1787
1897,1136
1898,1470
1899,2155
1900,1903
1901,1195
1902,1386
1903,2130
1904,2087
1905,1328
1906,1311
1907,2047
1908,2199
1909,1446
1910,1242
1911,1936
1912,2245
1913,1560
1914,1197
1915,1831
1916,2313
1917,1725
1918,1199
1919,1709
1920,2304
1921,1855
1922,1215
1923,1575
1924,2254
1925,1985
1926,1264
1927,1456
1928,2176
1929,2091
1930,1341
1931,1349
1932,2097
1933,2202
1934,1437
1935,1271
1936,1989
1937,2282
1938,1568
1939,1210
1940,1865
1941,2304
1942,1701
1943,1211
1944,1734
1945,2308
1946,1838
1947,1215
1948,1618
1949,2317
1950,2011
1951,1299
1952,1515
1953,2245
1954,2115
1955,1360
1956,1406
1957,2153
1958,2213
1959,1468
1960,1341
1961,2067
1962,2327
1963,1610
1964,1287
1965,1948
1966,2365
1967,1728
1968,1237
1969,1795
1970,2355
1971,1862
1972,1269
1973,1699
1974,2366
1975,2026
1976,1315
1977,1564
1978,2286
1979,2125
1980,1371
1981,1460
1982,2208
1983,2245
1984,1488
1985,1375
1986,2117
1987,2349
1988,1616
1989,1328
1990,2000
1991,2397
1992,1739
1993,1264
1994,1856
1995,2399
1996,1872
1997,1302
1998,1755
1999,2417
2000,2047
2001,1349
2002,1635
2003,2335
2004,2146
2005,1403
2006,1520
2007,2285
2008,2288
2009,1522
2010,1518
2011,2277
2012,2485
2013,1739
2014,1451
2015,2137
2016,2513
2017,1863
2018,1471
2019,2096
2020,2589
2021,1969
2022,1357
2023,1819
2024,2453
2025,2058
2026,1366
2027,1664
2028,2362
2029,2127
2030,1367
2031,1492
2032,2247
2033,2208
2034,1442
2035,1408
2036,2147
2037,2315
2038,1569
2039,1331
2040,2045
2041,2393
2042,1699
2043,1293
2044,1903
2045,2372
2046,1749
2047,1232
2048,1909
2049,2928
2050,3049
2051,2955
2052,4095
2053,4095
2054,4095
2055,3534
2056,3052
2057,3014
2058,2320
2059,1311
2060,1319
2061,2233
2062,2399
2063,1664
2064,1445
2065,2145
2066,2442
2067,1698
2068,1296
2069,1926
2070,2416
2071,1812
2072,1291
2073,1821
2074,2421
2075,1956
2076,1310
2077,1696
2078,2411
2079,2118
2080,1378
2081,1584
2082,2334
2083,2262
2084,1501
2085,1521
2086,2289
2087,2385
2088,1631
2089,1461
2090,2206
2091,2475
2092,1775
2093,1443
2094,2128
2095,2611
2096,2003
2097,1505
2098,2064
2099,2674
2100,2199
2101,1584
2102,2001
2103,2705
2104,2401
2105,1717
2106,1987
2107,2781
2108,2665
2109,1926
2110,2009
2111,2810
2112,2911
2113,2146
2114,2015
2115,2781
2116,3111
2117,2322
2118,1995
2119,2654
2120,3117
2121,2361
2122,1808
2123,2305
2124,2795
2125,2177
2126,1466
2127,1814
2128,2416
2129,2007
2130,1249
2131,1460
2132,2151
2133,1949
2134,1150
2135,1191
2136,1923
2137,1927
2138,1149
2139,1050
2140,1796
2141,1982
2142,1235
2143,956
2144,1651
2145,2043
2146,1387
2147,919
2148,1520
2149,2096
2150,1561
2151,964
2152,1426
2153,2091
2154,1712
2155,1023
2156,1328
2157,2057
2158,1847
2159,1093
2160,1221
2161,1986
2162,2000
2163,1226
2164,1154
2165,1904
2166,2093
2167,1334
2168,1076
2169,1777
2170,2160
2171,1476
2172,1066
2173,1677
2174,2211
2175,1648
2176,1078
2177,1535
2178,2167
2179,1747
2180,1072
2181,1412
2182,2149
2183,1923
2184,1170
2185,1312
2186,2069
2187,2041
2188,1257
2189,1213
2190,1955
2191,2116
2192,1360
2193,1130
2194,1870
2195,2192
2196,1502
2197,1109
2198,1737
2199,2240
2200,1651
2201,1093
2202,1600
2203,2221
2204,1791
2205,1132
2206,1491
2207,2206
2208,1934
2209,1194
2210,1376
2211,2125
2212,2062
2213,1286
2214,1281
2215,2055
2216,2186
2217,1399
2218,1200
2219,1935
2220,2243
2221,1524
2222,1157
2223,1802
2224,2281
2225,1680
2226,1153
2227,1694
2228,2309
2229,1841
2230,1183
2231,1571
2232,2258
2233,1947
2234,1210
2235,1424
2236,2181
2237,2093
2238,1341
2239,1364
2240,2135
2241,2229
2242,1435
2243,1275
2244,2000
2245,2283
2246,1554
2247,1206
2248,1887
2249,2323
2250,1693
2251,1200
2252,1765
2253,2349
2254,1855
2255,1232
2256,1637
2257,2314
2258,2005
2259,1328
2260,1595
2261,2365
2262,2256
2263,1472
2264,1520
2265,2272
2266,2335
2267,1593
2268,1484
2269,2224
2270,2438
2271,1655
2272,1309
2273,1968
2274,2413
2275,1775
2276,1278
2277,1826
2278,2357
2279,1823
2280,1193
2281,1623
2282,2290
2283,1942
2284,1247
2285,1523
2286,2261
2287,2096
2288,1325
2289,1403
2290,2166
2291,2192
2292,1408
2293,1315
2294,2063
2295,2259
2296,1469
2297,1203
2298,2079
2299,2823
2300,2655
2301,2795
2302,4095
2303,4095
2304,4095
2305,3311
2306,3141
2307,3039
2308,2074
2309,1157
2310,1469
2311,2289
2312,2160
2313,1403
2314,1514
2315,2252
2316,2224
2317,1433
2318,1360
2319,2112
2320,2279
2321,1535
2322,1280
2323,1970
2324,2359
2325,1691
2326,1267
2327,1894
2328,2425
2329,1852
2330,1286
2331,1776
2332,2415
2333,2000
2334,1328
2335,1666
2336,2384
2337,2165
2338,1437
2339,1603
2340,2371
2341,2352
2342,1584
2343,1535
2344,2308
2345,2476
2346,1718
2347,1493
2348,2226
2349,2592
2350,1919
2351,1566
2352,2221
2353,2738
2354,2178
2355,1667
2356,2202
2357,2890
2358,2449
2359,1791
2360,2162
2361,2917
2362,2689
2363,1971
2364,2187
2365,2992
2366,2911
2367,2123
2368,2112
2369,2864
2370,2992
2371,2145
2372,1869
2373,2505
2374,2753
2375,1956
2376,1488
2377,2047
2378,2448
2379,1754
2380,1153
2381,1637
2382,2190
2383,1684
2384,999
2385,1392
2386,2085
2387,1777
2388,1033
2389,1229
2390,1977
2391,1866
2392,1073
2393,1091
2394,1855
2395,1949
2396,1175
2397,1014
2398,1773
2399,2054
2400,1319
2401,987
2402,1665
2403,2102
2404,1471
2405,975
2406,1535
2407,2160
2408,1675
2409,1038
2410,1446
2411,2141
2412,1810
2413,1085
2414,1328
2415,2067
2416,1915
2417,1147
2418,1133
2419,1999
2420,2070
2421,1294
2422,1163
2423,1908
2424,2177
2425,1429
2426,1099
2427,1771
2428,2178
2429,1520
2430,1061
2431,1651
2432,2211
2433,1682
2434,1072
2435,1513
2436,2190
2437,1831
2438,1115
2439,1378
2440,2143
2441,1979
2442,1205
2443,1291
2444,2047
2445,2074
2446,1297
2447,1202
2448,1941
2449,2160
2450,1421
2451,1152
2452,1840
2453,2254
2454,1584
2455,1119
2456,1713
2457,2256
2458,1704
2459,1098
2460,1562
2461,2227
2462,1858
2463,1168
2464,1477
2465,2209
2466,2001
2467,1253
2468,1366
2469,2126
2470,2133
2471,1339
2472,1278
2473,2028
2474,2215
2475,1464
2476,1121
2477,1925
2478,2270
2479,1587
2480,1155
2481,1767
2482,2313
2483,1757
2484,1174
2485,1664
2486,2303
2487,1891
2488,1211
2489,1532
2490,2245
2491,2015
2492,1277
2493,1441
2494,2198
2495,2162
2496,1392
2497,1354
2498,2114
2499,2283
2500,1494
2501,1250
2502,1968
2503,2305
2504,1621
2505,1229
2506,1872
2507,2361
2508,1776
2509,1233
2510,1749
2511,2391
2512,1974
2513,1329
2514,1712
2515,2442
2516,2189
2517,1429
2518,1601
2519,2363
2520,2316
2521,1567
2522,1569
2523,2290
2524,2347
2525,1535
2526,1344
2527,2085
2528,2409
2529,1687
2530,1282
2531,1909
2532,2387
2533,1770
2534,1206
2535,1724
2536,2325
2537,1873
2538,1237
2539,1629
2540,2321
2541,2023
2542,1287
2543,1505
2544,2250
2545,2160
2546,1373
2547,1363
2548,2092
2549,2166
2550,1453
2551,1495
2552,2630
2553,3767
2554,3538
2555,3600
2556,4095
2557,4095
2558,3563
2559,2471
2560,2372
2561,2481
2562,1793
2563,1168
2564,1666
2565,2426
2566,2125
2567,1379
2568,1578
2569,2283
2570,2149
2571,1372
2572,1423
2573,2190
2574,2251
2575,1447
2576,1331
2577,2075
2578,2326
2579,1607
2580,1296
2581,1991
2582,2423
2583,1783
2584,1313
2585,1885
2586,2461
2587,1951
2588,1348
2589,1786
2590,2451
2591,2126
2592,1423
2593,1702
2594,2448
2595,2307
2596,1535
2597,1633
2598,2402
2599,2457
2600,1694
2601,1599
2602,2355
2603,2599
2604,1887
2605,1622
2606,2333
2607,2779
2608,2144
2609,1715
2610,2320
2611,2924
2612,2397
2613,1826
2614,2299
2615,3055
2616,2679
2617,1992
2618,2288
2619,3093
2620,2880
2621,2093
2622,2167
2623,2896
2624,2835
2625,1969
2626,1808
2627,2484
2628,2621
2629,1789
2630,1438
2631,2064
2632,2380
2633,1639
2634,1143
2635,1712
2636,2202
2637,1563
2638,976
2639,1450
2640,2099
2641,1689
2642,989
2643,1315
2644,2039
2645,1817
2646,1048
2647,1163
2648,1925
2649,1907
2650,1137
2651,1102
2652,1872
2653,2064
2654,1281
2655,1040
2656,1769
2657,2109
2658,1405
2659,999
2660,1642
2661,2160
2662,1585
2663,1017
2664,1529
2665,2175
2666,1749
2667,1081
2668,1424
2669,2138
2670,1888
2671,1136
2672,1297
2673,2073
2674,2026
2675,1242
2676,1226
2677,1977
2678,2114
2679,1331
2680,1113
2681,1841
2682,2171
2683,1478
2684,1100
2685,1744
2686,2233
2687,1627
2688,1088
2689,1611
2690,2233
2691,1767
2692,1085
2693,1451
2694,2167
2695,1891
2696,1154
2697,1353
2698,2106
2699,1998
2700,1221
2701,1232
2702,2000
2703,2107
2704,1347
2705,1164
2706,1894
2707,2213
2708,1489
2709,1130
2710,1792
2711,2255
2712,1616
2713,1088
2714,1627
2715,2228
2716,1746
2717,1090
2718,1501
2719,2197
2720,1889
2721,1167
2722,1389
2723,2135
2724,2011
2725,1225
2726,1261
2727,2029
2728,2127
2729,1345
2730,1184
2731,1925
2732,2194
2733,1467
2734,1127
2735,1795
2736,2228
2737,1581
2738,1083
2739,1659
2740,2224
2741,1715
2742,1100
2743,1525
2744,2214
2745,1867
2746,1147
2747,1389
2748,2130
2749,1994
2750,1229
2751,1279
2752,2043
2753,2096
2754,1313
2755,1177
2756,1924
2757,2147
2758,1403
2759,1107
2760,1817
2761,2243
2762,1621
2763,1180
2764,1774
2765,2320
2766,1776
2767,1161
2768,1598
2769,2312
2770,1977
2771,1271
2772,1514
2773,2207
2774,1994
2775,1206
2776,1303
2777,2070
2778,2071
2779,1264
2780,1136
2781,1883
2782,2075
2783,1317
2784,1041
2785,1738
2786,2137
2787,1456
2788,999
2789,1600
2790,2150
2791,1589
2792,971
2793,1440
2794,2117
2795,1718
2796,995
2797,1264
2798,1973
2799,1798
2800,1199
2801,1706
2802,3103
2803,4043
2804,3341
2805,3307
2806,4095
2807,3851
2808,2245
2809,1442
2810,1813
2811,2078
2812,1353
2813,926
2814,1585
2815,2150
2816,1561
2817,954
2818,1445
2819,2115
2820,1668
2821,949
2822,1296
2823,2061
2824,1808
2825,1015
2826,1165
2827,1957
2828,1920
2829,1120
2830,1070
2831,1863
2832,2047
2833,1269
2834,1021
2835,1776
2836,2159
2837,1415
2838,975
2839,1617
2840,2138
2841,1565
2842,1013
2843,1535
2844,2176
2845,1735
2846,1085
2847,1453
2848,2169
2849,1913
2850,1179
2851,1381
2852,2165
2853,2128
2854,1377
2855,1375
2856,2167
2857,2326
2858,1584
2859,1394
2860,2130
2861,2475
2862,1795
2863,1460
2864,2139
2865,2634
2866,2035
2867,1521
2868,2066
2869,2685
2870,2212
2871,1535
2872,1890
2873,2538
2874,2189
2875,1392
2876,1520
2877,2180
2878,1998
2879,1143
2880,1085
2881,1776
2882,1814
2883,980
2884,751
2885,1443
2886,1710
2887,970
2888,615
2889,1264
2890,1700
2891,1074
2892,563
2893,1103
2894,1680
2895,1183
2896,554
2897,931
2898,1649
2899,1343
2900,627
2901,857
2902,1616
2903,1499
2904,730
2905,768
2906,1535
2907,1616
2908,848
2909,707
2910,1454
2911,1714
2912,989
2913,665
2914,1341
2915,1753
2916,1107
2917,656
2918,1233
2919,1808
2920,1307
2921,711
2922,1136
2923,1811
2924,1472
2925,768
2926,1008
2927,1735
2928,1577
2929,811
2930,896
2931,1653
2932,1681
2933,929
2934,819
2935,1561
2936,1791
2937,1070
2938,770
2939,1435
2940,1843
2941,1196
2942,749
2943,1326
2944,1883
2945,1358
2946,772
2947,1209
2948,1866
2949,1489
2950,800
2951,1087
2952,1810
2953,1637
2954,908
2955,1008
2956,1771
2957,1789
2958,1033
2959,944
2960,1677
2961,1882
2962,1145
2963,882
2964,1583
2965,1974
2966,1307
2967,866
2968,1456
2969,1976
2970,1429
2971,863
2972,1332
2973,1968
2974,1591
2975,927
2976,1255
2977,1968
2978,1771
2979,1049
2980,1169
2981,1904
2982,1897
2983,1136
2984,1078
2985,1823
2986,2010
2987,1277
2988,1033
2989,1722
2990,2080
2991,1413
2992,1003
2993,1610
2994,2111
2995,1554
2996,1016
2997,1504
2998,2128
2999,1735
3000,1088
3001,1421
3002,2122
3003,1885
3004,1154
3005,1295
3006,2032
3007,2018
3008,1302
3009,1301
3010,2059
3011,2223
3012,1489
3013,1259
3014,1948
3015,2283
3016,1623
3017,1278
3018,1918
3019,2390
3020,1776
3021,1211
3022,1686
3023,2292
3024,1872
3025,1230
3026,1535
3027,2203
3028,1927
3029,1210
3030,1387
3031,2118
3032,2045
3033,1301
3034,1296
3035,2032
3036,2146
3037,1410
3038,1229
3039,1924
3040,2245
3041,1579
3042,1214
3043,1825
3044,2261
3045,1632
3046,1149
3047,1824
3048,2755
3049,2841
3050,2811
3051,4095
3052,4095
3053,4095
3054,3431
3055,2989
3056,2950
3057,2254
3058,1263
3059,1288
3060,2115
3061,2289
3062,1591
3063,1424
3064,2104
3065,2367
3066,1653
3067,1298
3068,1934
3069,2365
3070,1758
3071,1266
3072,1805
3073,2384
3074,1926
3075,1329
3076,1728
3077,2389
3078,2097
3079,1397
3080,1631
3081,2345
3082,2238
3083,1518
3084,1586
3085,2331
3086,2411
3087,1679
3088,1535
3089,2255
3090,2528
3091,1829
3092,1514
3093,2167
3094,2604
3095,2003
3096,1565
3097,2128
3098,2696
3099,2224
3100,1659
3101,2096
3102,2775
3103,2469
3104,1809
3105,2079
3106,2846
3107,2741
3108,2032
3109,2119
3110,2896
3111,2992
3112,2240
3113,2141
3114,2887
3115,3201
3116,2407
3117,2117
3118,2768
3119,3248
3120,2468
3121,1942
3122,2415
3123,2884
3124,2283
3125,1623
3126,1959
3127,2494
3128,2085
3129,1358
3130,1586
3131,2240
3132,2025
3133,1284
3134,1363
3135,2083
3136,2081
3137,1325
3138,1222
3139,1922
3140,2111
3141,1399
3142,1143
3143,1828
3144,2191
3145,1535
3146,1136
3147,1717
3148,2229
3149,1694
3150,1147
3151,1613
3152,2237
3153,1874
3154,1223
3155,1523
3156,2226
3157,2032
3158,1321
3159,1419
3160,2146
3161,2150
3162,1427
3163,1379
3164,2100
3165,2283
3166,1574
3167,1330
3168,2000
3169,2360
3170,1712
3171,1296
3172,1877
3173,2388
3174,1858
3175,1310
3176,1776
3177,2384
3178,1996
3179,1347
3180,1661
3181,2339
3182,2128
3183,1407
3184,1535
3185,2271
3186,2241
3187,1501
3188,1459
3189,2187
3190,2339
3191,1615
3192,1392
3193,2079
3194,2395
3195,1762
3196,1391
3197,2000
3198,2453
3199,1886
3200,1367
3201,1861
3202,2454
3203,2032
3204,1409
3205,1754
3206,2416
3207,2166
3208,1463
3209,1627
3210,2352
3211,2301
3212,1535
3213,1534
3214,2269
3215,2394
3216,1649
3217,1431
3218,2151
3219,2477
3220,1795
3221,1411
3222,2037
3223,2515
3224,1937
3225,1423
3226,1917
3227,2512
3228,2077
3229,1427
3230,1798
3231,2486
3232,2224
3233,1517
3234,1706
3235,2435
3236,2345
3237,1587
3238,1601
3239,2340
3240,2461
3241,1712
3242,1535
3243,2244
3244,2537
3245,1850
3246,1498
3247,2132
3248,2559
3249,1973
3250,1470
3251,1997
3252,2592
3253,2134
3254,1503
3255,1882
3256,2554
3257,2263
3258,1567
3259,1793
3260,2544
3261,2459
3262,1742
3263,1783
3264,2502
3265,2582
3266,1847
3267,1712
3268,2443
3269,2726
3270,2005
3271,1650
3272,2255
3273,2650
3274,2034
3275,1568
3276,2100
3277,2654
3278,2151
3279,1510
3280,1889
3281,2533
3282,2213
3283,1515
3284,1754
3285,2479
3286,2341
3287,1602
3288,1664
3289,2365
3290,2460
3291,1717
3292,1583
3293,2283
3294,2512
3295,1786
3296,1447
3297,2089
3298,2589
3299,2210
3300,2187
3301,3503
3302,4095
3303,4095
3304,4095
3305,4095
3306,4095
3307,3538
3308,2167
3309,1926
3310,2434
3311,2256
3312,1602
3313,1746
3314,2492
3315,2519
3316,1723
3317,1591
3318,2308
3319,2529
3320,1811
3321,1516
3322,2180
3323,2559
3324,1936
3325,1479
3326,2043
3327,2596
3328,2091
3329,1517
3330,1954
3331,2609
3332,2260
3333,1584
3334,1853
3335,2558
3336,2384
3337,1655
3338,1759
3339,2511
3340,2546
3341,1799
3342,1715
3343,2448
3344,2686
3345,1957
3346,1694
3347,2371
3348,2785
3349,2134
3350,1711
3351,2303
3352,2880
3353,2354
3354,1811
3355,2288
3356,2967
3357,2596
3358,1942
3359,2269
3360,3052
3361,2859
3362,2145
3363,2288
3364,3111
3365,3136
3366,2335
3367,2269
3368,3039
3369,3273
3370,2411
3371,2114
3372,2734
3373,3050
3374,2271
3375,1772
3376,2273
3377,2688
3378,2046
3379,1429
3380,1835
3381,2389
3382,1921
3383,1216
3384,1497
3385,2177
3386,1935
3387,1205
3388,1436
3389,2061
3390,2000
3391,1247
3392,1194
3393,1919
3394,2077
3395,1339
3396,1124
3397,1817
3398,2167
3399,1494
3400,1106
3401,1721
3402,2211
3403,1648
3404,1093
3405,1586
3406,2199
3407,1791
3408,1155
3409,1499
3410,2192
3411,1947
3412,1228
3413,1397
3414,2125
3415,2064
3416,1309
3417,1298
3418,2039
3419,2183
3420,1447
3421,1259
3422,1948
3423,2264
3424,1583
3425,1202
3426,1803
3427,2260
3428,1700
3429,1187
3430,1686
3431,2287
3432,1854
3433,1221
3434,1583
3435,2256
3436,1986
3437,1264
3438,1434
3439,2163
3440,2099
3441,1356
3442,1356
3443,2083
3444,2201
3445,1460
3446,1271
3447,1974
3448,2272
3449,1575
3450,1213
3451,1838
3452,2297
3453,1709
3454,1215
3455,1741
3456,2326
3457,1873
3458,1243
3459,1616
3460,2265
3461,1909
3462,1269
3463,1487
3464,2211
3465,2109
3466,1369
3467,1396
3468,2131
3469,2195
3470,1461
3471,1297
3472,2012
3473,2275
3474,1575
3475,1248
3476,1895
3477,2330
3478,1728
3479,1251
3480,1781
3481,2335
3482,1855
3483,1237
3484,1634
3485,2290
3486,1987
3487,1310
3488,1535
3489,2255
3490,2122
3491,1389
3492,1439
3493,2160
3494,2217
3495,1472
3496,1347
3497,2069
3498,2323
3499,1617
3500,1301
3501,1943
3502,2357
3503,1744
3504,1280
3505,1821
3506,2371
3507,1876
3508,1277
3509,1692
3510,2352
3511,2032
3512,1371
3513,1655
3514,2384
3515,2256
3516,1522
3517,1578
3518,2285
3519,2333
3520,1597
3521,1509
3522,2256
3523,2502
3524,1744
3525,1389
3526,2002
3527,2411
3528,1791
3529,1309
3530,1856
3531,2386
3532,1855
3533,1264
3534,1682
3535,2318
3536,1962
3537,1281
3538,1563
3539,2260
3540,2081
3541,1327
3542,1411
3543,2163
3544,2195
3545,1447
3546,1348
3547,2070
3548,2263
3549,1491
3550,1199
3551,1936
3552,2548
3553,2331
3554,2455
3555,4076
3556,4095
3557,4095
3558,3793
3559,3819
3560,3621
3561,2319
3562,1235
3563,1430
3564,2211
3565,2106
3566,1424
3567,1565
3568,2279
3569,2237
3570,1447
3571,1362
3572,2094
3573,2263
3574,1531
3575,1273
3576,1968
3577,2333
3578,1680
3579,1269
3580,1877
3581,2389
3582,1841
3583,1285
3584,1759
3585,2378
3586,1995
3587,1341
3588,1675
3589,2369
3590,2160
3591,1451
3592,1605
3593,2346
3594,2328
3595,1579
3596,1535
3597,2277
3598,2446
3599,1744
3600,1535
3601,2253
3602,2592
3603,1937
3604,1567
3605,2194
3606,2698
3607,2144
3608,1638
3609,2147
3610,2793
3611,2416
3612,1808
3613,2176
3614,2923
3615,2688
3616,1977
3617,2149
3618,2921
3619,2883
3620,2128
3621,2110
3622,2854
3623,2992
3624,2177
3625,1904
3626,2517
3627,2772
3628,2005
3629,1523
3630,2047
3631,2446
3632,1795
3633,1200
3634,1650
3635,2205
3636,1724
3637,1040
3638,1355
3639,2017
3640,1730
3641,995
3642,1185
3643,1919
3644,1846
3645,1093
3646,1091
3647,1821
3648,1940
3649,1194
3650,990
3651,1709
3652,2023
3653,1319
3654,959
3655,1608
3656,2096
3657,1498
3658,979
3659,1490
3660,2105
3661,1653
3662,1010
3663,1378
3664,2077
3665,1803
3666,1089
3667,1297
3668,2032
3669,1938
3670,1183
3671,1198
3672,1936
3673,2033
3674,1276
3675,1118
3676,1841
3677,2128
3678,1423
3679,1078
3680,1727
3681,2175
3682,1531
3683,1042
3684,1581
3685,2145
3686,1671
3687,1061
3688,1466
3689,2129
3690,1817
3691,1110
3692,1345
3693,2068
3694,1925
3695,1170
3696,1221
3697,1978
3698,2032
3699,1305
3700,1161
3701,1893
3702,2138
3703,1424
3704,1106
3705,1776
3706,2192
3707,1560
3708,1079
3709,1645
3710,2212
3711,1721
3712,1119
3713,1530
3714,2193
3715,1869
3716,1170
3717,1416
3718,2125
3719,1981
3720,1239
3721,1325
3722,2069
3723,2123
3724,1362
3725,1246
3726,1974
3727,2211
3728,1473
3729,1176
3730,1840
3731,2266
3732,1638
3733,1173
3734,1743
3735,2295
3736,1779
3737,1177
3738,1611
3739,2256
3740,1904
3741,1214
3742,1488
3743,2224
3744,2055
3745,1298
3746,1395
3747,2142
3748,2162
3749,1398
3750,1316
3751,2046
3752,2242
3753,1506
3754,1232
3755,1921
3756,2301
3757,1663
3758,1229
3759,1823
3760,2339
3761,1799
3762,1221
3763,1680
3764,2314
3765,1963
3766,1337
3767,1669
3768,2397
3769,2199
3770,1441
3771,1535
3772,2285
3773,2282
3774,1560
3775,1520
3776,2260
3777,2403
3778,1635
3779,1360
3780,2044
3781,2389
3782,1722
3783,1279
3784,1857
3785,2340
3786,1796
3787,1235
3788,1714
3789,2327
3790,1925
3791,1267
3792,1595
3793,2284
3794,2059
3795,1322
3796,1466
3797,2206
3798,2178
3799,1424
3800,1367
3801,2094
3802,2189
3803,1441
3804,1323
3805,2303
3806,3175
3807,3047
3808,3209
3809,4095
3810,4095
3811,3981
3812,2849
3813,2676
3814,2665
3815,1900
3816,1154
3817,1535
3818,2282
3819,2063
3820,1359
3821,1532
3822,2258
3823,2182
3824,1413
3825,1390
3826,2130
3827,2247
3828,1500
3829,1298
3830,2002
3831,2323
3832,1653
3833,1281
3834,1927
3835,2396
3836,1823
3837,1296
3838,1807
3839,2410
3840,1966
3841,1328
3842,1703
3843,2399
3844,2143
3845,1437
3846,1641
3847,2384
3848,2304
3849,1566
3850,1584
3851,2332
3852,2451
3853,1719
3854,1535
3855,2274
3856,2603
3857,1925
3858,1591
3859,2246
3860,2736
3861,2160
3862,1664
3863,2214
3864,2851
3865,2419
3866,1819
3867,2224
3868,2960
3869,2685
3870,1984
3871,2203
3872,2982
3873,2887
3874,2096
3875,2102
3876,2842
3877,2930
3878,2094
3879,1840
3880,2466
3881,2688
3882,1877
3883,1429
3884,2000
3885,2393
3886,1711
3887,1148
3888,1636
3889,2192
3890,1670
3891,1015
3892,1392
3893,2043
3894,1713
3895,979
3896,1218
3897,1954
3898,1835
3899,1075
3900,1123
3901,1874
3902,1936
3903,1173
3904,1038
3905,1773
3906,2021
3907,1309
3908,994
3909,1680
3910,2112
3911,1473
3912,1004
3913,1583
3914,2148
3915,1643
3916,1023
3917,1454
3918,2112
3919,1778
3920,1089
3921,1354
3922,2105
3923,1951
3924,1197
3925,1280
3926,2025
3927,2064
3928,1289
3929,1175
3930,1913
3931,2133
3932,1419
3933,1133
3934,1811
3935,2219
3936,1573
3937,1104
3938,1686
3939,2213
3940,1691
3941,1088
3942,1529
3943,2188
3944,1839
3945,1151
3946,1434
3947,2151
3948,1965
3949,1214
3950,1313
3951,2063
3952,2059
3953,1303
3954,1218
3955,1970
3956,2186
3957,1451
3958,1177
3959,1862
3960,2229
3961,1582
3962,1147
3963,1734
3964,2253
3965,1712
3966,1135
3967,1607
3968,2242
3969,1861
3970,1185
3971,1495
3972,2208
3973,2003
3974,1264
3975,1379
3976,2127
3977,2109
3978,1336
3979,1280
3980,2034
3981,2229
3982,1488
3983,1245
3984,1937
3985,2315
3986,1642
3987,1206
3988,1809
3989,2343
3990,1780
3991,1208
3992,1680
3993,2329
3994,1930
3995,1264
3996,1583
3997,2282
3998,2058
3999,1310
4000,1443
4001,2192
4002,2176
4003,1407
4004,1370
4005,2119
4006,2271
4007,1520
4008,1323
4009,2009
4010,2361
4011,1706
4012,1331
4013,1968
4014,2466
4015,1889
4016,1351
4017,1862
4018,2497
4019,2094
4020,1449
4021,1786
4022,2437
4023,2147
4024,1379
4025,1529
4026,2286
4027,2250
4028,1475
4029,1427
4030,2156
4031,2291
4032,1517
4033,1298
4034,2000
4035,2320
4036,1614
4037,1229
4038,1875
4039,2365
4040,1775
4041,1249
4042,1763
4043,2352
4044,1899
4045,1262
4046,1617
4047,2274
4048,1969
4049,1315
4050,1755
4051,2928
4052,3651
4053,3341
4054,3952
4055,4095
4056,4095
4057,3329
4058,2531
4059,2559
4060,2419
4061,1535
4062,1203
4063,1938
4064,2443
4065,1853
4066,1326
4067,1840
4068,2410
4069,1913
4070,1267
4071,1669
4072,2352
4073,2066
4074,1351
4075,1581
4076,2315
4077,2213
4078,1442
4079,1462
4080,2218
4081,2305
4082,1535
4083,1398
4084,2143
4085,2411
4086,1701
4087,1372
4088,2047
4089,2485
4090,1858
4091,1373
4092,1937
4093,2543
4094,2065
4095,1446
4096,1873
4097,2559
4098,2259
4099,1557
4100,1803
4101,2559
4102,2448
4103,1697
4104,1771
4105,2556
4106,2660
4107,1908
4108,1803
4109,2559
4110,2870
4111,2160
4112,1869
4113,2559
4114,3071
4115,2395
4116,1929
4117,2512
4118,3191
4119,2615
4120,1977
4121,2379
4122,3059
4123,2637
4124,1834
4125,1981
4126,2638
4127,2393
4128,1535
4129,1535
4130,2222
4131,2186
4132,1349
4133,1200
4134,1925
4135,2096
4136,1323
4137,994
4138,1679
4139,2064
4140,1392
4141,927
4142,1424
4143,2079
4144,1535
4145,921
4146,1369
4147,2058
4148,1680
4149,965
4150,1240
4151,1996
4152,1835
4153,1062
4154,1164
4155,1936
4156,1946
4157,1168
4158,1095
4159,1877
4160,2063
4161,1285
4162,1001
4163,1735
4164,2131
4165,1458
4166,1036
4167,1621
4168,2196
4169,1641
4170,1057
4171,1533
4172,2182
4173,1786
4174,1095
4175,1417
4176,2160
4177,1936
4178,1171
4179,1293
4180,2061
4181,2032
4182,1238
4183,1178
4184,1938
4185,2129
4186,1377
4187,1127
4188,1843
4189,2193
4190,1498
4191,1075
4192,1712
4193,2229
4194,1584
4195,1067
4196,1559
4197,2222
4198,1807
4199,1119
4200,1444
4201,2176
4202,1943
4203,1185
4204,1328
4205,2085
4206,2031
4207,1238
4208,1203
4209,1981
4210,2151
4211,1379
4212,1159
4213,1873
4214,2205
4215,1503
4216,1111
4217,1751
4218,2237
4219,1637
4220,1088
4221,1618
4222,2251
4223,1808
4224,1137
4225,1489
4226,2192
4227,1934
4228,1187
4229,1363
4230,2139
4231,2091
4232,1303
4233,1275
4234,2035
4235,2165
4236,1397
4237,1183
4238,1916
4239,2215
4240,1510
4241,1143
4242,1808
4243,2287
4244,1674
4245,1127
4246,1664
4247,2275
4248,1812
4249,1167
4250,1531
4251,2221
4252,1936
4253,1201
4254,1419
4255,2170
4256,2086
4257,1299
4258,1307
4259,2065
4260,2163
4261,1381
4262,1209
4263,1974
4264,2295
4265,1603
4266,1262
4267,1920
4268,2351
4269,1727
4270,1230
4271,1799
4272,2389
4273,1905
4274,1246
4275,1610
4276,2258
4277,1927
4278,1200
4279,1429
4280,2160
4281,2019
4282,1227
4283,1253
4284,1970
4285,2064
4286,1277
4287,1121
4288,1863
4289,2143
4290,1405
4291,1066
4292,1730
4293,2173
4294,1520
4295,1034
4296,1600
4297,2175
4298,1652
4299,987
4300,1383
4301,2096
4302,1927
4303,1569
4304,2322
4305,4095
4306,4095
4307,3711
4308,3609
4309,4095
4310,3323
4311,1827
4312,1218
4313,1771
4314,2032
4315,1363
4316,1103
4317,1795
4318,2207
4319,1530
4320,1055
4321,1613
4322,2167
4323,1639
4324,1032
4325,1458
4326,2128
4327,1770
4328,1053
4329,1337
4330,2080
4331,1904
4332,1152
4333,1251
4334,2014
4335,2039
4336,1264
4337,1169
4338,1911
4339,2128
4340,1405
4341,1139
4342,1846
4343,2237
4344,1581
4345,1136
4346,1735
4347,2288
4348,1765
4349,1200
4350,1678
4351,2335
4352,1971
4353,1297
4354,1622
4355,2365
4356,2196
4357,1470
4358,1608
4359,2383
4360,2409
4361,1674
4362,1633
4363,2410
4364,2644
4365,1921
4366,1699
4367,2418
4368,2814
4369,2139
4370,1723
4371,2344
4372,2869
4373,2283
4374,1691
4375,2117
4376,2689
4377,2203
4378,1443
4379,1680
4380,2295
4381,1977
4382,1154
4383,1224
4384,1906
4385,1834
4386,1019
4387,944
4388,1664
4389,1807
4390,1023
4391,779
4392,1469
4393,1811
4394,1102
4395,695
4396,1317
4397,1834
4398,1251
4399,697
4400,1204
4401,1831
4402,1391
4403,723
4404,1076
4405,1781
4406,1529
4407,817
4408,994
4409,1749
4410,1687
4411,918
4412,912
4413,1665
4414,1809
4415,1063
4416,848
4417,1572
4418,1918
4419,1222
4420,841
4421,1481
4422,1968
4423,1360
4424,844
4425,1362
4426,1958
4427,1504
4428,865
4429,1249
4430,1949
4431,1673
4432,958
4433,1163
4434,1904
4435,1815
4436,1068
4437,1069
4438,1821
4439,1921
4440,1168
4441,997
4442,1722
4443,2027
4444,1329
4445,973
4446,1615
4447,2077
4448,1455
4449,938
4450,1471
4451,2082
4452,1570
4453,989
4454,1377
4455,2055
4456,1753
4457,1040
4458,1263
4459,1982
4460,1869
4461,1117
4462,1157
4463,1910
4464,1991
4465,1251
4466,1104
4467,1822
4468,2079
4469,1356
4470,1023
4471,1693
4472,2128
4473,1513
4474,1040
4475,1598
4476,2169
4477,1680
4478,1070
4479,1468
4480,2126
4481,1810
4482,1115
4483,1360
4484,2081
4485,1937
4486,1203
4487,1270
4488,2014
4489,2081
4490,1328
4491,1199
4492,1925
4493,2169
4494,1435
4495,1133
4496,1802
4497,2229
4498,1597
4499,1134
4500,1707
4501,2260
4502,1738
4503,1136
4504,1578
4505,2224
4506,1872
4507,1179
4508,1451
4509,2177
4510,2011
4511,1280
4512,1338
4513,2112
4514,2128
4515,1366
4516,1269
4517,2015
4518,2256
4519,1559
4520,1320
4521,2030
4522,2416
4523,1735
4524,1279
4525,1888
4526,2461
4527,1936
4528,1360
4529,1811
4530,2454
4531,2032
4532,1303
4533,1597
4534,2355
4535,2155
4536,1360
4537,1440
4538,2224
4539,2224
4540,1408
4541,1299
4542,2073
4543,2279
4544,1506
4545,1233
4546,1968
4547,2361
4548,1653
4549,1202
4550,1841
4551,2390
4552,1797
4553,1182
4554,1651
4555,2304
4556,1887
4557,1322
4558,1979
4559,3389
4560,4062
4561,3546
4562,4095
4563,4095
4564,4095
4565,2878
4566,2235
4567,2450
4568,2283
4569,1421
4570,1221
4571,2063
4572,2453
4573,1733
4574,1294
4575,1936
4576,2448
4577,1827
4578,1239
4579,1760
4580,2432
4581,1983
4582,1285
4583,1630
4584,2393
4585,2131
4586,1345
4587,1514
4588,2343
4589,2288
4590,1472
4591,1518
4592,2261
4593,2407
4594,1616
4595,1382
4596,2166
4597,2519
4598,1791
4599,1393
4600,2080
4601,2611
4602,1987
4603,1438
4604,1989
4605,2671
4606,2188
4607,1510
4608,1902
4609,2699
4610,2416
4611,1666
4612,1870
4613,2722
4614,2658
4615,1871
4616,1891
4617,2755
4618,2927
4619,2116
4620,1922
4621,2736
4622,3168
4623,2357
4624,1981
4625,2701
4626,3335
4627,2553
4628,1982
4629,2527
4630,3210
4631,2538
4632,1787
4633,2102
4634,2785
4635,2368
4636,1515
4637,1653
4638,2395
4639,2203
4640,1331
4641,1308
4642,2099
4643,2128
4644,1277
4645,1078
4646,1872
4647,2160
4648,1389
4649,1021
4650,1723
4651,2197
4652,1515
4653,985
4654,1568
4655,2198
4656,1671
4657,995
4658,1439
4659,2206
4660,1861
4661,1104
4662,1333
4663,2162
4664,2012
4665,1191
4666,1222
4667,2064
4668,2134
4669,1317
4670,1155
4671,1967
4672,2253
4673,1468
4674,1113
4675,1840
4676,2304
4677,1614
4678,1087
4679,1690
4680,2320
4681,1778
4682,1130
4683,1573
4684,2291
4685,1927
4686,1183
4687,1445
4688,2221
4689,2047
4690,1247
4691,1313
4692,2138
4693,2160
4694,1363
4695,1233
4696,2023
4697,2256
4698,1483
4699,1163
4700,1883
4701,2299
4702,1631
4703,1156
4704,1775
4705,2362
4706,1807
4707,1179
4708,1642
4709,2337
4710,1945
4711,1219
4712,1496
4713,2279
4714,2102
4715,1317
4716,1405
4717,2218
4718,2245
4719,1443
4720,1335
4721,2121
4722,2334
4723,1561
4724,1247
4725,1973
4726,2402
4727,1712
4728,1251
4729,1861
4730,2439
4731,1858
4732,1239
4733,1723
4734,2416
4735,2007
4736,1280
4737,1594
4738,2367
4739,2160
4740,1382
4741,1494
4742,2307
4743,2288
4744,1462
4745,1380
4746,2179
4747,2379
4748,1609
4749,1344
4750,2087
4751,2465
4752,1746
4753,1295
4754,1929
4755,2480
4756,1892
4757,1296
4758,1778
4759,2454
4760,2041
4761,1360
4762,1697
4763,2474
4764,2275
4765,1525
4766,1661
4767,2448
4768,2416
4769,1606
4770,1535
4771,2355
4772,2559
4773,1793
4774,1494
4775,2192
4776,2515
4777,1789
4778,1360
4779,2003
4780,2531
4781,1904
4782,1299
4783,1803
4784,2458
4785,2015
4786,1328
4787,1671
4788,2411
4789,2160
4790,1399
4791,1555
4792,2339
4793,2273
4794,1478
4795,1446
4796,2237
4797,2369
4798,1584
4799,1323
4800,2035
4801,2422
4802,1918
4803,1933
4804,3253
4805,4095
4806,4095
4807,4095
4808,4095
4809,4095
4810,3033
4811,1840
4812,1816
4813,2386
4814,2114
4815,1389
4816,1587
4817,2378
4818,2314
4819,1535
4820,1511
4821,2271
4822,2397
4823,1622
4824,1407
4825,2138
4826,2453
4827,1728
4828,1347
4829,1990
4830,2473
4831,1870
4832,1355
4833,1893
4834,2497
4835,2032
4836,1395
4837,1780
4838,2449
4839,2169
4840,1472
4841,1707
4842,2451
4843,2352
4844,1577
4845,1600
4846,2368
4847,2480
4848,1737
4849,1574
4850,2304
4851,2608
4852,1909
4853,1593
4854,2263
4855,2747
4856,2141
4857,1670
4858,2227
4859,2866
4860,2402
4861,1797
4862,2214
4863,2971
4864,2665
4865,1959
4866,2214
4867,3037
4868,2925
4869,2146
4870,2183
4871,2988
4872,3084
4873,2227
4874,2022
4875,2705
4876,2946
4877,2114
4878,1702
4879,2276
4880,2641
4881,1916
4882,1357
4883,1843
4884,2375
4885,1810
4886,1147
4887,1526
4888,2183
4889,1830
4890,1090
4891,1330
4892,2067
4893,1913
4894,1137
4895,1203
4896,1965
4897,2002
4898,1207
4899,1072
4900,1834
4901,2089
4902,1344
4903,1045
4904,1744
4905,2171
4906,1518
4907,1043
4908,1621
4909,2198
4910,1664
4911,1069
4912,1513
4913,2200
4914,1840
4915,1134
4916,1418
4917,2164
4918,1986
4919,1218
4920,1302
4921,2069
4922,2110
4923,1328
4924,1235
4925,1989
4926,2211
4927,1462
4928,1179
4929,1873
4930,2256
4931,1573
4932,1121
4933,1763
4934,2295
4935,1749
4936,1156
4937,1605
4938,2262
4939,1870
4940,1168
4941,1471
4942,2195
4943,1984
4944,1217
4945,1345
4946,2146
4947,2155
4948,1361
4949,1278
4950,2041
4951,2250
4952,1475
4953,1191
4954,1904
4955,2305
4956,1614
4957,1170
4958,1803
4959,2368
4960,1781
4961,1172
4962,1659
4963,2335
4964,1906
4965,1189
4966,1507
4967,2273
4968,2054
4969,1271
4970,1413
4971,2214
4972,2189
4973,1389
4974,1328
4975,2106
4976,2272
4977,1477
4978,1222
4979,1970
4980,2357
4981,1648
4982,1218
4983,1853
4984,2393
4985,1787
4986,1202
4987,1703
4988,2366
4989,1920
4990,1225
4991,1586
4992,2343
4993,2093
4994,1316
4995,1470
4996,2262
4997,2196
4998,1385
4999,1343
5000,2155
5001,2315
5002,1530
5003,1296
5004,2037
5005,2393
5006,1655
5007,1239
5008,1895
5009,2420
5010,1792
5011,1228
5012,1773
5013,2448
5014,2010
5015,1345
5016,1731
5017,2486
5018,2198
5019,1401
5020,1575
5021,2373
5022,2314
5023,1535
5024,1529
5025,2313
5026,2370
5027,1531
5028,1319
5029,2098
5030,2391
5031,1635
5032,1222
5033,1887
5034,2359
5035,1716
5036,1170
5037,1732
5038,2363
5039,1871
5040,1200
5041,1602
5042,2324
5043,2005
5044,1242
5045,1459
5046,2265
5047,2148
5048,1343
5049,1346
5050,2126
5051,2176
5052,1437
5053,1483
5054,2661
5055,3845
5056,3569
5057,3633
5058,4095
5059,4095
5060,3613
5061,2493
5062,2383
5063,2473
5064,1744
5065,1092
5066,1613
5067,2417
5068,2111
5069,1349
5070,1559
5071,2323
5072,2165
5073,1350
5074,1390
5075,2193
5076,2261
5077,1456
5078,1297
5079,2096
5080,2375
5081,1618
5082,1277
5083,1993
5084,2458
5085,1792
5086,1281
5087,1869
5088,2477
5089,1943
5090,1311
5091,1834
5092,2511
5093,2163
5094,1418
5095,1671
5096,2452
5097,2306
5098,1517
5099,1598
5100,2402
5101,2449
5102,1680
5103,1575
5104,2369
5105,2634
5106,1885
5107,1589
5108,2321
5109,2802
5110,2145
5111,1678
5112,2294
5113,2943
5114,2402
5115,1814
5116,2289
5117,3086
5118,2695
5119,1979
5120,2266
5121,3125
5122,2909
5123,2074
5124,2128
5125,2901
5126,2895
5127,2011
5128,1808
5129,2512
5130,2667
5131,1791
5132,1394
5133,2036
5134,2386
5135,1618
5136,1083
5137,1663
5138,2222
5139,1619
5140,970
5141,1424
5142,2117
5143,1700
5144,944
5145,1229
5146,2017
5147,1808
5148,1009
5149,1129
5150,1947
5151,1953
5152,1126
5153,1017
5154,1835
5155,2036
5156,1232
5157,946
5158,1710
5159,2126
5160,1406
5161,955
5162,1607
5163,2156
5164,1569
5165,963
5166,1470
5167,2155
5168,1719
5169,996
5170,1395
5171,2128
5172,1885
5173,1105
5174,1239
5175,2054
5176,2015
5177,1198
5178,1142
5179,1941
5180,2122
5181,1331
5182,1089
5183,1851
5184,2190
5185,1472
5186,1047
5187,1710
5188,2244
5189,1632
5190,1040
5191,1557
5192,2211
5193,1770
5194,1088
5195,1430
5196,2206
5197,1932
5198,1149
5199,1307
5200,2110
5201,2039
5202,1233
5203,1216
5204,2015
5205,2167
5206,1373
5207,1143
5208,1909
5209,2263
5210,1520
5211,1104
5212,1769
5213,2289
5214,1669
5215,1107
5216,1644
5217,2304
5218,1839
5219,1142
5220,1511
5221,2258
5222,1971
5223,1200
5224,1389
5225,2198
5226,2126
5227,1311
5228,1364
5229,2111
5230,2242
5231,1437
5232,1219
5233,1978
5234,2306
5235,1556
5236,1159
5237,1853
5238,2378
5239,1732
5240,1172
5241,1724
5242,2371
5243,1881
5244,1181
5245,1563
5246,2305
5247,1990
5248,1230
5249,1451
5250,2256
5251,2151
5252,1344
5253,1423
5254,2162
5255,2242
5256,1446
5257,1260
5258,2045
5259,2346
5260,1634
5261,1238
5262,1943
5263,2401
5264,1745
5265,1211
5266,1788
5267,2406
5268,1894
5269,1258
5270,1722
5271,2469
5272,2159
5273,1408
5274,1633
5275,2407
5276,2262
5277,1479
5278,1526
5279,2367
5280,2441
5281,1610
5282,1404
5283,2155
5284,2410
5285,1648
5286,1301
5287,1983
5288,2413
5289,1717
5290,1202
5291,1798
5292,2404
5293,1863
5294,1209
5295,1648
5296,2363
5297,2014
5298,1265
5299,1517
5300,2295
5301,2132
5302,1344
5303,1410
5304,2213
5305,2250
5306,1402
5307,1221
5308,2064
5309,2525
5310,2125
5311,2313
5312,4076
5313,4095
5314,4095
5315,3920
5316,4095
5317,4041
5318,2393
5319,1267
5320,1535
5321,2313
5322,2022
5323,1327
5324,1617
5325,2397
5326,2202
5327,1379
5328,1436
5329,2246
5330,2263
5331,1443
5332,1325
5333,2115
5334,2343
5335,1557
5336,1251
5337,2004
5338,2449
5339,1750
5340,1271
5341,1899
5342,2480
5343,1910
5344,1277
5345,1763
5346,2455
5347,2065
5348,1354
5349,1680
5350,2467
5351,2259
5352,1467
5353,1591
5354,2417
5355,2419
5356,1610
5357,1519
5358,2345
5359,2582
5360,1814
5361,1535
5362,2320
5363,2735
5364,2045
5365,1619
5366,2283
5367,2882
5368,2302
5369,1729
5370,2272
5371,3045
5372,2622
5373,1922
5374,2259
5375,3119
5376,2867
5377,2073
5378,2192
5379,3051
5380,2989
5381,2112
5382,1994
5383,2755
5384,2860
5385,1967
5386,1610
5387,2262
5388,2544
5389,1743
5390,1232
5391,1818
5392,2303
5393,1647
5394,1013
5395,1516
5396,2174
5397,1703
5398,976
5399,1309
5400,2064
5401,1785
5402,994
5403,1217
5404,1975
5405,1921
5406,1104
5407,1059
5408,1883
5409,2032
5410,1233
5411,994
5412,1759
5413,2109
5414,1365
5415,957
5416,1639
5417,2173
5418,1535
5419,970
5420,1517
5421,2190
5422,1723
5423,1018
5424,1379
5425,2143
5426,1868
5427,1089
5428,1275
5429,2101
5430,2032
5431,1217
5432,1184
5433,2000
5434,2142
5435,1328
5436,1095
5437,1874
5438,2226
5439,1472
5440,1070
5441,1749
5442,2275
5443,1621
5444,1057
5445,1615
5446,2258
5447,1774
5448,1072
5449,1456
5450,2230
5451,1929
5452,1149
5453,1339
5454,2161
5455,2055
5456,1237
5457,1241
5458,2061
5459,2176
5460,1349
5461,1149
5462,1929
5463,2255
5464,1490
5465,1114
5466,1809
5467,2320
5468,1667
5469,1106
5470,1670
5471,2317
5472,1807
5473,1129
5474,1535
5475,2299
5476,1974
5477,1197
5478,1414
5479,2227
5480,2109
5481,1284
5482,1293
5483,2113
5484,2207
5485,1393
5486,1222
5487,2015
5488,2320
5489,1535
5490,1173
5491,1881
5492,2368
5493,1680
5494,1136
5495,1732
5496,2367
5497,1843
5498,1177
5499,1616
5500,2349
5501,1991
5502,1232
5503,1478
5504,2282
5505,2121
5506,1305
5507,1360
5508,2197
5509,2253
5510,1524
5511,1269
5512,2073
5513,2334
5514,1565
5515,1221
5516,1945
5517,2395
5518,1695
5519,1196
5520,1813
5521,2422
5522,1873
5523,1221
5524,1680
5525,2407
5526,2023
5527,1273
5528,1535
5529,2338
5530,2186
5531,1411
5532,1520
5533,2368
5534,2405
5535,1573
5536,1430
5537,2237
5538,2478
5539,1712
5540,1416
5541,2156
5542,2559
5543,1808
5544,1281
5545,1902
5546,2499
5547,1925
5548,1261
5549,1707
5550,2399
5551,1996
5552,1249
5553,1531
5554,2326
5555,2131
5556,1323
5557,1417
5558,2239
5559,2254
5560,1419
5561,1296
5562,2115
5563,2345
5564,1565
5565,1254
5566,1970
5567,2350
5568,1618
5569,1250
5570,2161
5571,3322
5572,3312
5573,3193
5574,4095
5575,4095
5576,4095
5577,3056
5578,2695
5579,2768
5580,2112
5581,1195
5582,1387
5583,2311
5584,2337
5585,1502
5586,1390
5587,2185
5588,2362
5589,1559
5590,1280
5591,2032
5592,2424
5593,1696
5594,1242
5595,1890
5596,2430
5597,1827
5598,1237
5599,1766
5600,2455
5601,2022
5602,1311
5603,1660
5604,2432
5605,2183
5606,1390
5607,1535
5608,2372
5609,2323
5610,1519
5611,1479
5612,2315
5613,2480
5614,1680
5615,1520
5616,2219
5617,2592
5618,1858
5619,1440
5620,2128
5621,2690
5622,2098
5623,1535
5624,2102
5625,2800
5626,2349
5627,1677
5628,2066
5629,2890
5630,2627
5631,1863
5632,2066
5633,2952
5634,2910
5635,2089
5636,2071
5637,2931
5638,3152
5639,2256
5640,2000
5641,2757
5642,3152
5643,2279
5644,1793
5645,2387
5646,2864
5647,2112
5648,1435
5649,1902
5650,2502
5651,1936
5652,1151
5653,1476
5654,2218
5655,1890
5656,1086
5657,1257
5658,2064
5659,1957
5660,1109
5661,1079
5662,1904
5663,2021
5664,1187
5665,970
5666,1766
5667,2111
5668,1337
5669,939
5670,1648
5671,2169
5672,1488
5673,917
5674,1491
5675,2160
5676,1662
5677,975
5678,1383
5679,2165
5680,1852
5681,1066
5682,1270
5683,2096
5684,1974
5685,1155
5686,1168
5687,1990
5688,2093
5689,1281
5690,1097
5691,1875
5692,2171
5693,1406
5694,1040
5695,1744
5696,2227
5697,1535
5698,1009
5699,1610
5700,2242
5701,1715
5702,1055
5703,1489
5704,2225
5705,1877
5706,1107
5707,1331
5708,2143
5709,1984
5710,1173
5711,1232
5712,2067
5713,2125
5714,1293
5715,1145
5716,1958
5717,2210
5718,1426
5719,1083
5720,1822
5721,2288
5722,1597
5723,1083
5724,1692
5725,2295
5726,1741
5727,1072
5728,1521
5729,2262
5730,1882
5731,1127
5732,1407
5733,2209
5734,2029
5735,1226
5736,1296
5737,2135
5738,2167
5739,1318
5740,1172
5741,1991
5742,2256
5743,1462
5744,1137
5745,1874
5746,2320
5747,1617
5748,1109
5749,1735
5750,2338
5751,1755
5752,1105
5753,1586
5754,2317
5755,1921
5756,1165
5757,1447
5758,2251
5759,2064
5760,1232
5761,1318
5762,2139
5763,2163
5764,1346
5765,1242
5766,2039
5767,2262
5768,1461
5769,1152
5770,1893
5771,2314
5772,1589
5773,1105
5774,1733
5775,2305
5776,1733
5777,1127
5778,1617
5779,2314
5780,1802
5781,1149
5782,1461
5783,2261
5784,2060
5785,1280
5786,1423
5787,2255
5788,2224
5789,1385
5790,1313
5791,2133
5792,2339
5793,1562
5794,1288
5795,2001
5796,2337
5797,1569
5798,1113
5799,1774
5800,2315
5801,1706
5802,1077
5803,1579
5804,2234
5805,1773
5806,1040
5807,1377
5808,2153
5809,1904
5810,1131
5811,1279
5812,2091
5813,2020
5814,1197
5815,1136
5816,1950
5817,2112
5818,1287
5819,1008
5820,1749
5821,2080
5822,1392
5823,1165
5824,2221
5825,3487
5826,3427
5827,3132
5828,4052
5829,4095
5830,3279
5831,2014
5832,1818
5833,2197
5834,1767
5835,971
5836,1185
5837,2036
5838,1984
5839,1179
5840,1130
5841,1919
5842,2047
5843,1229
5844,990
5845,1775
5846,2129
5847,1375
5848,955
5849,1702
5850,2159
5851,1504
5852,931
5853,1466
5854,2146
5855,1671
5856,977
5857,1365
5858,2112
5859,1817
5860,1056
5861,1253
5862,2046
5863,1939
5864,1152
5865,1168
5866,1989
5867,2107
5868,1312
5869,1136
5870,1919
5871,2227
5872,1485
5873,1118
5874,1823
5875,2333
5876,1695
5877,1185
5878,1774
5879,2437
5880,1947
5881,1301
5882,1735
5883,2508
5884,2218
5885,1482
5886,1710
5887,2522
5888,2447
5889,1664
5890,1702
5891,2503
5892,2608
5893,1802
5894,1620
5895,2352
5896,2592
5897,1766
5898,1328
5899,1926
5900,2301
5901,1567
5902,966
5903,1474
5904,2019
5905,1439
5906,726
5907,1099
5908,1773
5909,1386
5910,620
5911,842
5912,1638
5913,1458
5914,661
5915,695
5916,1509
5917,1555
5918,742
5919,582
5920,1371
5921,1637
5922,876
5923,555
5924,1164
5925,1719
5926,1037
5927,541
5928,1126
5929,1738
5930,1200
5931,558
5932,995
5933,1735
5934,1377
5935,651
5936,909
5937,1702
5938,1529
5939,740
5940,810
5941,1617
5942,1653
5943,851
5944,727
5945,1515
5946,1754
5947,983
5948,684
5949,1394
5950,1808
5951,1119
5952,640
5953,1232
5954,1811
5955,1264
5956,666
5957,1119
5958,1801
5959,1406
5960,695
5961,977
5962,1755
5963,1556
5964,778
5965,875
5966,1668
5967,1672
5968,876
5969,795
5970,1596
5971,1787
5972,1023
5973,743
5974,1460
5975,1847
5976,1150
5977,705
5978,1330
5979,1878
5980,1306
5981,715
5982,1202
5983,1882
5984,1470
5985,779
5986,1075
5987,1840
5988,1615
5989,849
5990,978
5991,1783
5992,1759
5993,966
5994,905
5995,1706
5996,1898
5997,1115
5998,848
5999,1573
6000,1943
6001,1245
6002,828
6003,1475
6004,2023
6005,1433
6006,855
6007,1355
6008,2007
6009,1577
6010,883
6011,1221
6012,1987
6013,1758
6014,997
6015,1142
6016,1938
6017,1895
6018,1111
6019,1051
6020,1833
6021,1987
6022,1221
6023,995
6024,1735
6025,2082
6026,1377
6027,989
6028,1654
6029,2192
6030,1564
6031,1081
6032,1587
6033,2213
6034,1767
6035,1106
6036,1500
6037,2245
6038,1984
6039,1222
6040,1365
6041,2106
6042,2005
6043,1217
6044,1196
6045,1963
6046,2070
6047,1296
6048,1091
6049,1837
6050,2130
6051,1410
6052,1033
6053,1701
6054,2175
6055,1568
6056,1031
6057,1563
6058,2189
6059,1725
6060,1089
6061,1467
6062,2193
6063,1883
6064,1126
6065,1280
6066,2064
6067,2098
6068,1643
6069,2134
6070,3830
6071,4095
6072,3987
6073,3634
6074,4095
6075,3749
6076,2150
6077,1311
6078,1744
6079,2214
6080,1650
6081,1186
6082,1771
6083,2397
6084,1910
6085,1243
6086,1616
6087,2320
6088,1997
6089,1267
6090,1471
6091,2251
6092,2142
6093,1377
6094,1408
6095,2191
6096,2287
6097,1520
6098,1361
6099,2106
6100,2394
6101,1674
6102,1331
6103,2011
6104,2480
6105,1862
6106,1375
6107,1926
6108,2522
6109,2035
6110,1427
6111,1840
6112,2543
6113,2224
6114,1523
6115,1776
6116,2549
6117,2432
6118,1691
6119,1753
6120,2544
6121,2629
6122,1883
6123,1758
6124,2512
6125,2829
6126,2125
6127,1830
6128,2544
6129,3071
6130,2414
6131,1962
6132,2543
6133,3247
6134,2662
6135,2053
6136,2480
6137,3279
6138,2832
6139,2091
6140,2294
6141,3026
6142,2753
6143,1919
6144,1904
6145,2590
6146,2526
6147,1666
6148,1476
6149,2178
6150,2355
6151,1577
6152,1241
6153,1907
6154,2283
6155,1610
6156,1136
6157,1713
6158,2240
6159,1699
6160,1104
6161,1557
6162,2237
6163,1857
6164,1167
6165,1438
6166,2198
6167,2010
6168,1262
6169,1345
6170,2127
6171,2134
6172,1456
6173,1293
6174,2073
6175,2281
6176,1520
6177,1249
6178,1958
6179,2357
6180,1693
6181,1239
6182,1840
6183,2384
6184,1841
6185,1263
6186,1742
6187,2402
6188,2006
6189,1328
6190,1627
6191,2363
6192,2147
6193,1391
6194,1497
6195,2278
6196,2273
6197,1520
6198,1440
6199,2199
6200,2379
6201,1627
6202,1366
6203,2077
6204,2448
6205,1758
6206,1342
6207,1965
6208,2509
6209,1936
6210,1360
6211,1827
6212,2483
6213,2083
6214,1387
6215,1699
6216,2431
6217,2205
6218,1461
6219,1606
6220,2381
6221,2353
6222,1584
6223,1522
6224,2289
6225,2448
6226,1682
6227,1450
6228,2169
6229,2538
6230,1853
6231,1446
6232,2068
6233,2583
6234,1994
6235,1443
6236,1925
6237,2559
6238,2125
6239,1458
6240,1798
6241,2535
6242,2277
6243,1527
6244,1697
6245,2467
6246,2390
6247,1616
6248,1600
6249,2380
6250,2527
6251,1756
6252,1535
6253,2279
6254,2639
6255,1899
6256,1478
6257,2135
6258,2653
6259,2026
6260,1471
6261,2011
6262,2672
6263,2203
6264,1515
6265,1873
6266,2630
6267,2327
6268,1569
6269,1751
6270,2559
6271,2487
6272,1680
6273,1655
6274,2473
6275,2606
6276,1803
6277,1587
6278,2359
6279,2686
6280,1934
6281,1564
6282,2283
6283,2835
6284,2202
6285,1634
6286,2160
6287,2839
6288,2345
6289,1617
6290,2069
6291,2846
6292,2499
6293,1680
6294,1835
6295,2646
6296,2559
6297,1744
6298,1714
6299,2514
6300,2624
6301,1787
6302,1571
6303,2335
6304,2652
6305,1876
6306,1492
6307,2192
6308,2722
6309,2047
6310,1487
6311,2046
6312,2711
6313,2192
6314,1494
6315,1889
6316,2651
6317,2309
6318,1502
6319,1703
6320,2612
6321,2758
6322,2368
6323,2982
6324,4095
6325,4095
6326,4095
6327,4095
6328,4095
6329,4095
6330,2513
6331,1663
6332,2140
6333,2613
6334,2009
6335,1535
6336,2154
6337,2775
6338,2190
6339,1481
6340,1881
6341,2629
6342,2276
6343,1517
6344,1773
6345,2581
6346,2423
6347,1615
6348,1657
6349,2482
6350,2551
6351,1730
6352,1571
6353,2382
6354,2685
6355,1901
6356,1535
6357,2258
6358,2743
6359,2059
6360,1535
6361,2133
6362,2757
6363,2218
6364,1578
6365,2027
6366,2769
6367,2409
6368,1675
6369,1951
6370,2768
6371,2609
6372,1815
6373,1889
6374,2747
6375,2801
6376,2003
6377,1904
6378,2758
6379,3056
6380,2258
6381,1959
6382,2733
6383,3307
6384,2511
6385,2033
6386,2675
6387,3491
6388,2781
6389,2135
6390,2595
6391,3501
6392,2937
6393,2123
6394,2315
6395,3126
6396,2800
6397,1872
6398,1859
6399,2595
6400,2533
6401,1638
6402,1456
6403,2206
6404,2381
6405,1531
6406,1190
6407,1889
6408,2288
6409,1554
6410,1073
6411,1699
6412,2287
6413,1691
6414,1053
6415,1535
6416,2242
6417,1817
6418,1071
6419,1377
6420,2171
6421,1954
6422,1154
6423,1269
6424,2091
6425,2087
6426,1264
6427,1179
6428,1992
6429,2175
6430,1389
6431,1117
6432,1886
6433,2277
6434,1535
6435,1094
6436,1751
6437,2311
6438,1696
6439,1088
6440,1591
6441,2288
6442,1860
6443,1146
6444,1479
6445,2262
6446,2002
6447,1209
6448,1345
6449,2179
6450,2142
6451,1310
6452,1236
6453,2054
6454,2247
6455,1434
6456,1174
6457,1925
6458,2307
6459,1575
6460,1122
6461,1769
6462,2307
6463,1687
6464,1104
6465,1630
6466,2307
6467,1853
6468,1137
6469,1487
6470,2256
6471,1984
6472,1201
6473,1358
6474,2176
6475,2112
6476,1296
6477,1264
6478,2096
6479,2229
6480,1420
6481,1178
6482,1953
6483,2294
6484,1558
6485,1138
6486,1829
6487,2358
6488,1723
6489,1150
6490,1626
6491,2336
6492,1855
6493,1163
6494,1535
6495,2294
6496,2006
6497,1241
6498,1428
6499,2238
6500,2157
6501,1343
6502,1313
6503,2114
6504,2252
6505,1453
6506,1250
6507,2004
6508,2352
6509,1609
6510,1211
6511,1874
6512,2380
6513,1746
6514,1185
6515,1728
6516,2364
6517,1879
6518,1207
6519,1606
6520,2334
6521,2032
6522,1279
6523,1479
6524,2266
6525,2145
6526,1340
6527,1344
6528,2160
6529,2258
6530,1472
6531,1296
6532,2069
6533,2357
6534,1617
6535,1283
6536,2003
6537,2487
6538,1841
6539,1298
6540,1855
6541,2495
6542,2003
6543,1358
6544,1790
6545,2541
6546,2161
6547,1373
6548,1524
6549,2320
6550,2192
6551,1391
6552,1407
6553,2208
6554,2279
6555,1459
6556,1279
6557,2033
6558,2316
6559,1556
6560,1197
6561,1875
6562,2345
6563,1681
6564,1170
6565,1749
6566,2358
6567,1837
6568,1200
6569,1631
6570,2327
6571,1946
6572,1155
6573,1408
6574,2323
6575,2493
6576,2213
6577,2891
6578,4095
6579,4095
6580,4095
6581,3689
6582,3955
6583,3103
6584,1684
6585,1084
6586,1809
6587,2354
6588,1757
6589,1279
6590,1863
6591,2443
6592,1867
6593,1203
6594,1630
6595,2342
6596,1979
6597,1245
6598,1507
6599,2298
6600,2135
6601,1341
6602,1401
6603,2199
6604,2239
6605,1435
6606,1325
6607,2125
6608,2376
6609,1617
6610,1300
6611,2026
6612,2453
6613,1769
6614,1287
6615,1904
6616,2490
6617,1954
6618,1349
6619,1825
6620,2530
6621,2148
6622,1438
6623,1733
6624,2517
6625,2337
6626,1581
6627,1695
6628,2534
6629,2559
6630,1787
6631,1712
6632,2533
6633,2803
6634,2034
6635,1776
6636,2518
6637,3015
6638,2297
6639,1849
6640,2490
6641,3186
6642,2553
6643,1943
6644,2406
6645,3157
6646,2672
6647,1891
6648,2115
6649,2812
6650,2505
6651,1649
6652,1680
6653,2390
6654,2290
6655,1419
6656,1281
6657,2027
6658,2155
6659,1315
6660,999
6661,1728
6662,2111
6663,1388
6664,914
6665,1535
6666,2106
6667,1501
6668,890
6669,1373
6670,2064
6671,1627
6672,909
6673,1246
6674,2019
6675,1793
6676,1018
6677,1165
6678,1959
6679,1927
6680,1124
6681,1054
6682,1854
6683,2032
6684,1252
6685,1007
6686,1776
6687,2128
6688,1409
6689,987
6690,1648
6691,2178
6692,1569
6693,985
6694,1514
6695,2192
6696,1739
6697,1039
6698,1386
6699,2150
6700,1875
6701,1104
6702,1264
6703,2080
6704,2007
6705,1201
6706,1169
6707,1980
6708,2132
6709,1329
6710,1103
6711,1856
6712,2214
6713,1473
6714,1054
6715,1713
6716,2224
6717,1615
6718,1051
6719,1589
6720,2240
6721,1762
6722,1085
6723,1464
6724,2192
6725,1898
6726,1123
6727,1319
6728,2134
6729,2044
6730,1238
6731,1232
6732,2034
6733,2161
6734,1366
6735,1133
6736,1902
6737,2245
6738,1505
6739,1123
6740,1806
6741,2305
6742,1659
6743,1103
6744,1653
6745,2293
6746,1808
6747,1125
6748,1509
6749,2240
6750,1929
6751,1182
6752,1413
6753,2219
6754,2096
6755,1285
6756,1296
6757,2112
6758,2203
6759,1383
6760,1194
6761,1971
6762,2302
6763,1557
6764,1183
6765,1863
6766,2358
6767,1705
6768,1165
6769,1728
6770,2362
6771,1849
6772,1199
6773,1602
6774,2330
6775,1999
6776,1253
6777,1474
6778,2266
6779,2127
6780,1328
6781,1360
6782,2187
6783,2281
6784,1511
6785,1383
6786,2181
6787,2455
6788,1680
6789,1322
6790,2033
6791,2519
6792,1866
6793,1363
6794,1927
6795,2521
6796,1950
6797,1269
6798,1687
6799,2416
6800,2064
6801,1323
6802,1507
6803,2275
6804,2114
6805,1296
6806,1353
6807,2167
6808,2224
6809,1415
6810,1270
6811,2063
6812,2309
6813,1535
6814,1206
6815,1920
6816,2367
6817,1679
6818,1170
6819,1763
6820,2314
6821,1766
6822,1262
6823,2033
6824,3408
6825,3792
6826,3351
6827,4095
6828,4095
6829,4095
6830,2705
6831,2193
6832,2474
6833,2211
6834,1339
6835,1254
6836,2095
6837,2362
6838,1600
6839,1279
6840,1996
6841,2416
6842,1714
6843,1216
6844,1843
6845,2410
6846,1853
6847,1230
6848,1691
6849,2377
6850,1970
6851,1247
6852,1559
6853,2349
6854,2154
6855,1370
6856,1481
6857,2291
6858,2287
6859,1469
6860,1382
6861,2194
6862,2415
6863,1648
6864,1374
6865,2133
6866,2539
6867,1840
6868,1383
6869,2017
6870,2598
6871,2019
6872,1421
6873,1931
6874,2667
6875,2267
6876,1535
6877,1879
6878,2697
6879,2498
6880,1737
6881,1863
6882,2697
6883,2736
6884,1963
6885,1909
6886,2741
6887,2983
6888,2181
6889,1922
6890,2688
6891,3149
6892,2353
6893,1891
6894,2511
6895,3095
6896,2385
6897,1715
6898,2138
6899,2743
6900,2214
6901,1424
6902,1689
6903,2369
6904,2042
6905,1200
6906,1296
6907,2082
6908,2006
6909,1175
6910,1102
6911,1904
6912,2065
6913,1248
6914,976
6915,1733
6916,2101
6917,1357
6918,925
6919,1596
6920,2143
6921,1526
6922,944
6923,1466
6924,2144
6925,1680
6926,973
6927,1279
6928,2091
6929,1823
6930,1059
6931,1241
6932,2064
6933,1991
6934,1175
6935,1155
6936,1972
6937,2117
6938,1308
6939,1072
6940,1849
6941,2207
6942,1461
6943,1065
6944,1734
6945,2261
6946,1629
6947,1063
6948,1593
6949,2219
6950,1744
6951,1054
6952,1423
6953,2187
6954,1901
6955,1127
6956,1316
6957,2117
6958,2023
6959,1206
6960,1194
6961,2000
6962,2115
6963,1313
6964,1119
6965,1904
6966,2239
6967,1469
6968,1074
6969,1764
6970,2273
6971,1626
6972,1061
6973,1613
6974,2271
6975,1783
6976,1099
6977,1490
6978,2241
6979,1934
6980,1161
6981,1375
6982,2175
6983,2053
6984,1239
6985,1261
6986,2095
6987,2174
6988,1365
6989,1177
6990,1968
6991,2266
6992,1495
6993,1123
6994,1835
6995,2315
6996,1658
6997,1119
6998,1696
6999,2339
7000,1823
7001,1152
7002,1567
7003,2303
7004,1966
7005,1200
7006,1422
7007,2217
7008,2097
7009,1296
7010,1330
7011,2142
7012,2210
7013,1405
7014,1247
7015,2032
7016,2288
7017,1526
7018,1206
7019,1951
7020,2435
7021,1775
7022,1259
7023,1843
7024,2459
7025,1933
7026,1283
7027,1741
7028,2493
7029,2131
7030,1346
7031,1535
7032,2313
7033,2139
7034,1340
7035,1391
7036,2178
7037,2189
7038,1355
7039,1218
7040,2012
7041,2256
7042,1479
7043,1153
7044,1883
7045,2318
7046,1621
7047,1130
7048,1742
7049,2331
7050,1778
7051,1133
7052,1599
7053,2317
7054,1917
7055,1119
7056,1385
7057,2288
7058,2389
7059,2034
7060,2703
7061,4095
7062,4095
7063,3975
7064,3533
7065,3889
7066,3105
7067,1695
7068,1115
7069,1815
7070,2286
7071,1641
7072,1198
7073,1820
7074,2385
7075,1807
7076,1171
7077,1638
7078,2346
7079,1936
7080,1202
7081,1501
7082,2277
7083,2074
7084,1279
7085,1374
7086,2186
7087,2197
7088,1392
7089,1305
7090,2125
7091,2319
7092,1534
7093,1249
7094,1990
7095,2384
7096,1674
7097,1234
7098,1895
7099,2483
7100,1899
7101,1296
7102,1787
7103,2498
7104,2098
7105,1372
7106,1697
7107,2471
7108,2257
7109,1490
7110,1645
7111,2468
7112,2480
7113,1702
7114,1662
7115,2483
7116,2705
7117,1931
7118,1690
7119,2465
7120,2907
7121,2202
7122,1777
7123,2451
7124,3106
7125,2451
7126,1853
7127,2351
7128,3082
7129,2559
7130,1803
7131,2047
7132,2722
7133,2390
7134,1535
7135,1617
7136,2339
7137,2202
7138,1313
7139,1201
7140,1968
7141,2082
7142,1237
7143,946
7144,1685
7145,2046
7146,1298
7147,858
7148,1506
7149,2039
7150,1409
7151,827
7152,1345
7153,2007
7154,1535
7155,832
7156,1197
7157,1963
7158,1683
7159,912
7160,1097
7161,1914
7162,1838
7163,1037
7164,1010
7165,1835
7166,1977
7167,1168
7168,943
7169,1719
7170,2074
7171,1342
7172,935
7173,1612
7174,2123
7175,1488
7176,934
7177,1487
7178,2131
7179,1648
7180,955
7181,1346
7182,2111
7183,1811
7184,1038
7185,1227
7186,2029
7187,1934
7188,1119
7189,1117
7190,1936
7191,2070
7192,1264
7193,1066
7194,1836
7195,2157
7196,1403
7197,1013
7198,1694
7199,2178
7200,1520
7201,976
7202,1559
7203,2186
7204,1687
7205,1023
7206,1430
7207,2163
7208,1827
7209,1072
7210,1295
7211,2103
7212,1989
7213,1178
7214,1198
7215,2006
7216,2111
7217,1298
7218,1126
7219,1889
7220,2181
7221,1414
7222,1057
7223,1771
7224,2255
7225,1591
7226,1059
7227,1643
7228,2251
7229,1726
7230,1074
7231,1495
7232,2225
7233,1883
7234,1135
7235,1393
7236,2198
7237,2064
7238,1244
7239,1286
7240,2083
7241,2161
7242,1360
7243,1207
7244,1983
7245,2247
7246,1475
7247,1139
7248,1859
7249,2318
7250,1637
7251,1128
7252,1728
7253,2343
7254,1805
7255,1151
7256,1583
7257,2309
7258,1968
7259,1271
7260,1567
7261,2355
7262,2214
7263,1408
7264,1456
7265,2256
7266,2288
7267,1498
7268,1412
7269,2225
7270,2443
7271,1623
7272,1264
7273,1969
7274,2403
7275,1721
7276,1227
7277,1797
7278,2371
7279,1807
7280,1163
7281,1614
7282,2313
7283,1925
7284,1195
7285,1478
7286,2269
7287,2074
7288,1266
7289,1358
7290,2174
7291,2189
7292,1377
7293,1263
7294,2062
7295,2261
7296,1433
7297,1153
7298,2055
7299,2857
7300,2660
7301,2783
7302,4095
7303,4095
7304,4095
7305,3539
7306,3358
7307,3195
7308,2090
7309,1091
7310,1405
7311,2291
7312,2159
7313,1386
7314,1475
7315,2262
7316,2234
7317,1411
7318,1316
7319,2127
7320,2335
7321,1535
7322,1250
7323,1981
7324,2384
7325,1681
7326,1232
7327,1873
7328,2437
7329,1856
7330,1264
7331,1766
7332,2447
7333,2017
7334,1307
7335,1643
7336,2416
7337,2191
7338,1421
7339,1578
7340,2397
7341,2381
7342,1583
7343,1514
7344,2336
7345,2544
7346,1757
7347,1487
7348,2236
7349,2637
7350,1943
7351,1535
7352,2202
7353,2768
7354,2187
7355,1633
7356,2175
7357,2901
7358,2459
7359,1792
7360,2160
7361,2981
7362,2736
7363,1978
7364,2155
7365,3030
7366,3005
7367,2160
7368,2086
7369,2867
7370,3041
7371,2169
7372,1856
7373,2516
7374,2794
7375,1977
7376,1474
7377,2047
7378,2486
7379,1794
7380,1155
7381,1633
7382,2256
7383,1745
7384,1011
7385,1358
7386,2107
7387,1826
7388,1041
7389,1205
7390,2000
7391,1906
7392,1093
7393,1061
7394,1872
7395,2000
7396,1207
7397,995
7398,1783
7399,2128
7400,1373
7401,971
7402,1664
7403,2192
7404,1535
7405,977
7406,1520
7407,2186
7408,1707
7409,1036
7410,1413
7411,2173
7412,1872
7413,1111
7414,1309
7415,2121
7416,2006
7417,1198
7418,1194
7419,2033
7420,2165
7421,1370
7422,1167
7423,1933
7424,2256
7425,1489
7426,1104
7427,1779
7428,2286
7429,1635
7430,1099
7431,1655
7432,2289
7433,1796
7434,1127
7435,1531
7436,2270
7437,1939
7438,1170
7439,1388
7440,2207
7441,2111
7442,1299
7443,1307
7444,2111
7445,2199
7446,1390
7447,1210
7448,1986
7449,2277
7450,1515
7451,1147
7452,1857
7453,2331
7454,1677
7455,1151
7456,1734
7457,2369
7458,1846
7459,1172
7460,1585
7461,2322
7462,1988
7463,1223
7464,1466
7465,2269
7466,2128
7467,1319
7468,1360
7469,2185
7470,2238
7471,1424
7472,1265
7473,2061
7474,2346
7475,1581
7476,1234
7477,1950
7478,2422
7479,1737
7480,1215
7481,1797
7482,2413
7483,1870
7484,1215
7485,1649
7486,2375
7487,2021
7488,1270
7489,1532
7490,2320
7491,2160
7492,1360
7493,1409
7494,2224
7495,2271
7496,1463
7497,1335
7498,2149
7499,2451
7500,1700
7501,1403
7502,2114
7503,2543
7504,1827
7505,1323
7506,1936
7507,2545
7508,2015
7509,1390
7510,1824
7511,2484
7512,2063
7513,1301
7514,1589
7515,2355
7516,2157
7517,1339
7518,1404
7519,2215
7520,2237
7521,1403
7522,1270
7523,2064
7524,2286
7525,1502
7526,1189
7527,1917
7528,2337
7529,1642
7530,1162
7531,1783
7532,2358
7533,1781
7534,1146
7535,1595
7536,2265
7537,1867
7538,1245
7539,1815
7540,3120
7541,3767
7542,3376
7543,4014
7544,4095
7545,4095
7546,2971
7547,2262
7548,2403
7549,2225
7550,1354
7551,1126
7552,1953
7553,2415
7554,1711
7555,1216
7556,1798
7557,2325
7558,1718
7559,1103
7560,1597
7561,2270
7562,1846
7563,1141
7564,1465
7565,2240
7566,2005
7567,1221
7568,1329
7569,2147
7570,2132
7571,1322
7572,1246
7573,2057
7574,2263
7575,1470
7576,1200
7577,1935
7578,2318
7579,1611
7580,1165
7581,1806
7582,2349
7583,1760
7584,1198
7585,1722
7586,2416
7587,1989
7588,1290
7589,1636
7590,2416
7591,2193
7592,1424
7593,1571
7594,2386
7595,2363
7596,1611
7597,1593
7598,2421
7599,2601
7600,1831
7601,1616
7602,2383
7603,2793
7604,2083
7605,1669
7606,2312
7607,2851
7608,2236
7609,1648
7610,2130
7611,2751
7612,2213
7613,1429
7614,1695
7615,2362
7616,2005
7617,1149
7618,1228
7619,1940
7620,1801
7621,933
7622,848
7623,1616
7624,1719
7625,886
7626,631
7627,1381
7628,1724
7629,972
7630,557
7631,1212
7632,1738
7633,1114
7634,554
7635,1056
7636,1690
7637,1211
7638,536
7639,912
7640,1678
7641,1383
7642,622
7643,805
7644,1621
7645,1535
7646,750
7647,729
7648,1518
7649,1647
7650,848
7651,650
7652,1419
7653,1732
7654,990
7655,601
7656,1286
7657,1785
7658,1137
7659,600
7660,1134
7661,1790
7662,1303
7663,631
7664,1008
7665,1733
7666,1424
7667,675
7668,880
7669,1662
7670,1535
7671,739
7672,750
7673,1569
7674,1683
7675,890
7676,706
7677,1457
7678,1762
7679,1006
7680,634
7681,1298
7682,1765
7683,1135
7684,629
7685,1187
7686,1822
7687,1316
7688,656
7689,1050
7690,1775
7691,1446
7692,703
7693,912
7694,1702
7695,1579
7696,801
7697,846
7698,1645
7699,1712
7700,907
7701,741
7702,1506
7703,1803
7704,1063
7705,719
7706,1405
7707,1851
7708,1200
7709,698
7710,1277
7711,1879
7712,1350
7713,715
7714,1123
7715,1853
7716,1523
7717,799
7718,1022
7719,1799
7720,1643
7721,867
7722,918
7723,1721
7724,1769
7725,976
7726,837
7727,1616
7728,1887
7729,1158
7730,826
7731,1515
7732,1934
7733,1278
7734,791
7735,1371
7736,1968
7737,1442
7738,836
7739,1299
7740,2027
7741,1697
7742,995
7743,1251
7744,1993
7745,1812
7746,1057
7747,1148
7748,1968
7749,2019
7750,1222
7751,1062
7752,1786
7753,2005
7754,1252
7755,941
7756,1630
7757,2019
7758,1338
7759,859
7760,1455
7761,2004
7762,1455
7763,855
7764,1307
7765,1999
7766,1623
7767,920
7768,1200
7769,1961
7770,1781
7771,1015
7772,1115
7773,1895
7774,1907
7775,1119
7776,976
7777,1710
7778,1965
7779,1408
7780,1530
7781,2795
7782,4095
7783,3930
7784,3347
7785,3978
7786,4095
7787,2659
7788,1487
7789,1532
7790,2057
7791,1690
7792,1084
7793,1423
7794,2176
7795,1955
7796,1182
7797,1265
7798,2019
7799,1991
7800,1218
7801,1138
7802,1911
7803,2127
7804,1371
7805,1105
7806,1814
7807,2215
7808,1535
7809,1104
7810,1712
7811,2253
7812,1699
7813,1140
7814,1641
7815,2304
7816,1905
7817,1233
7818,1554
7819,2304
7820,2100
7821,1349
7822,1473
7823,2269
7824,2271
7825,1509
7826,1467
7827,2243
7828,2415
7829,1683
7830,1463
7831,2193
7832,2559
7833,1908
7834,1523
7835,2184
7836,2762
7837,2209
7838,1679
7839,2190
7840,2889
7841,2480
7842,1837
7843,2174
7844,2946
7845,2718
7846,1989
7847,2156
7848,2962
7849,2909
7850,2113
7851,2001
7852,2734
7853,2833
7854,1969
7855,1642
7856,2288
7857,2559
7858,1797
7859,1306
7860,1846
7861,2326
7862,1691
7863,1107
7864,1578
7865,2169
7866,1686
7867,1008
7868,1340
7869,2082
7870,1814
7871,1075
7872,1238
7873,2010
7874,1947
7875,1168
7876,1136
7877,1905
7878,2067
7879,1297
7880,1088
7881,1824
7882,2161
7883,1460
7884,1078
7885,1739
7886,2224
7887,1620
7888,1088
7889,1616
7890,2250
7891,1806
7892,1152
7893,1518
7894,2250
7895,1984
7896,1252
7897,1424
7898,2185
7899,2101
7900,1329
7901,1324
7902,2099
7903,2223
7904,1462
7905,1267
7906,2002
7907,2305
7908,1592
7909,1231
7910,1879
7911,2352
7912,1738
7913,1211
7914,1750
7915,2384
7916,1923
7917,1275
7918,1648
7919,2358
7920,2069
7921,1337
7922,1524
7923,2274
7924,2173
7925,1415
7926,1445
7927,2217
7928,2310
7929,1535
7930,1369
7931,2111
7932,2370
7933,1652
7934,1308
7935,1975
7936,2449
7937,1827
7938,1323
7939,1869
7940,2480
7941,1987
7942,1344
7943,1727
7944,2439
7945,2140
7946,1424
7947,1641
7948,2391
7949,2277
7950,1513
7951,1535
7952,2305
7953,2365
7954,1607
7955,1450
7956,2198
7957,2462
7958,1747
7959,1414
7960,2095
7961,2538
7962,1904
7963,1402
7964,1963
7965,2555
7966,2061
7967,1423
7968,1821
7969,2512
7970,2194
7971,1488
7972,1713
7973,2467
7974,2327
7975,1581
7976,1609
7977,2369
7978,2433
7979,1707
7980,1600
7981,2374
7982,2667
7983,1927
7984,1584
7985,2243
7986,2715
7987,2082
7988,1610
7989,2178
7990,2739
7991,2191
7992,1535
7993,1936
7994,2625
7995,2279
7996,1570
7997,1791
7998,2512
7999,2341
8000,1555
8001,1617
8002,2393
8003,2451
8004,1691
8005,1559
8006,2318
8007,2545
8008,1821
8009,1513
8010,2192
8011,2626
8012,1977
8013,1520
8014,2090
8015,2640
8016,2071
8017,1426
8018,1933
8019,2845
8020,2923
8021,2779
8022,4005
8023,4095
8024,4095
8025,4095
8026,4095
8027,4095
8028,2992
8029,1747
8030,1500
8031,2301
8032,2559
8033,1871
8034,1602
8035,2298
8036,2699
8037,2007
8038,1535
8039,2119
8040,2685
8041,2130
8042,1535
8043,1989
8044,2665
8045,2282
8046,1588
8047,1866
8048,2619
8049,2426
8050,1677
8051,1781
8052,2559
8053,2559
8054,1797
8055,1708
8056,2477
8057,2693
8058,1953
8059,1682
8060,2393
8061,2829
8062,2150
8063,1699
8064,2291
8065,2861
8066,2301
8067,1725
8068,2198
8069,2896
8070,2503
8071,1850
8072,2161
8073,2927
8074,2711
8075,1990
8076,2131
8077,2973
8078,3008
8079,2211
8080,2153
8081,2973
8082,3303
8083,2459
8084,2201
8085,2944
8086,3498
8087,2643
8088,2193
8089,2811
8090,3502
8091,2718
8092,2082
8093,2490
8094,3138
8095,2559
8096,1803
8097,2027
8098,2704
8099,2409
8100,1595
8101,1648
8102,2361
8103,2303
8104,1511
8105,1425
8106,2171
8107,2309
8108,1520
8109,1267
8110,1982
8111,2320
8112,1628
8113,1219
8114,1847
8115,2374
8116,1789
8117,1222
8118,1711
8119,2357
8120,1936
8121,1263
8122,1583
8123,2314
8124,2069
8125,1329
8126,1488
8127,2278
8128,2221
8129,1444
8130,1403
8131,2176
8132,2334
8133,1563
8134,1339
8135,2062
8136,2412
8137,1718
8138,1313
8139,1939
8140,2446
8141,1862
8142,1309
8143,1808
8144,2434
8145,1975
8146,1307
8147,1654
8148,2373
8149,2124
8150,1389
8151,1535
8152,2320
8153,2251
8154,1472
8155,1346
8156,2211
8157,2343
8158,1575
8159,1345
8160,2075
8161,2410
8162,1706
8163,1309
8164,1949
8165,2426
8166,1823
8167,1296
8168,1808
8169,2409
8170,1948
8171,1292
8172,1665
8173,2402
8174,2126
8175,1368
8176,1535
8177,2319
8178,2247
8179,1466
8180,1441
8181,2202
8182,2305
8183,1535
8184,1355
8185,2104
8186,2397
8187,1684
8188,1306
8189,1968
8190,2461
8191,1844
8192,1296
8193,1810
8194,2444
8195,1982
8196,1328
8197,1698
8198,2400
8199,2106
8200,1353
8201,1584
8202,2336
8203,2224
8204,1442
8205,1453
8206,2233
8207,2351
8208,1584
8209,1391
8210,2128
8211,2433
8212,1709
8213,1338
8214,1991
8215,2478
8216,1881
8217,1392
8218,1959
8219,2559
8220,2071
8221,1413
8222,1813
8223,2539
8224,2241
8225,1517
8226,1728
8227,2459
8228,2315
8229,1535
8230,1514
8231,2285
8232,2368
8233,1594
8234,1397
8235,2127
8236,2368
8237,1631
8238,1280
8239,1957
8240,2416
8241,1785
8242,1266
8243,1813
8244,2427
8245,1917
8246,1275
8247,1668
8248,2365
8249,2043
8250,1330
8251,1535
8252,2276
8253,2096
8254,1315
8255,1466
8256,2533
8257,3125
8258,2876
8259,3373
8260,4095
8261,4095
8262,3993
8263,3071
8264,2989
8265,2723
8266,1710
8267,1123
8268,1758
8269,2419
8270,1959
8271,1335
8272,1742
8273,2421
8274,2064
8275,1330
8276,1566
8277,2330
8278,2190
8279,1412
8280,1456
8281,2234
8282,2277
8283,1495
8284,1358
8285,2131
8286,2375
8287,1642
8288,1326
8289,2027
8290,2471
8291,1813
8292,1315
8293,1888
8294,2474
8295,1967
8296,1369
8297,1808
8298,2489
8299,2133
8300,1435
8301,1722
8302,2486
8303,2323
8304,1557
8305,1651
8306,2441
8307,2508
8308,1752
8309,1648
8310,2418
8311,2692
8312,1973
8313,1690
8314,2411
8315,2857
8316,2205
8317,1758
8318,2385
8319,3038
8320,2487
8321,1891
8322,2342
8323,3130
8324,2714
8325,1971
8326,2213
8327,2973
8328,2725
8329,1878
8330,1886
8331,2583
8332,2511
8333,1642
8334,1459
8335,2153
8336,2277
8337,1450
8338,1103
8339,1773
8340,2158
8341,1447
8342,960
8343,1535
8344,2107
8345,1534
8346,912
8347,1363
8348,2021
8349,1623
8350,912
8351,1205
8352,1964
8353,1762
8354,1005
8355,1106
8356,1902
8357,1897
8358,1095
8359,1008
8360,1803
8361,2006
8362,1249
8363,976
8364,1702
8365,2113
8366,1419
8367,971
8368,1575
8369,2128
8370,1565
8371,959
8372,1424
8373,2102
8374,1587
8375,1014
8376,1328
8377,2090
8378,1864
8379,1104
8380,1234
8381,2025
8382,2005
8383,1209
8384,1116
8385,1899
8386,2101
8387,1344
8388,1074
8389,1777
8390,2151
8391,1450
8392,1007
8393,1632
8394,2162
8395,1584
8396,1008
8397,1500
8398,2186
8399,1767
8400,1071
8401,1381
8402,2134
8403,1890
8404,1133
8405,1264
8406,2035
8407,1984
8408,1211
8409,1170
8410,1957
8411,2128
8412,1345
8413,1095
8414,1833
8415,2206
8416,1489
8417,1060
8418,1690
8419,2213
8420,1625
8421,1069
8422,1581
8423,2237
8424,1791
8425,1077
8426,1445
8427,2192
8428,1937
8429,1170
8430,1318
8431,2119
8432,2075
8433,1280
8434,1243
8435,2016
8436,2169
8437,1395
8438,1168
8439,1895
8440,2234
8441,1520
8442,1122
8443,1774
8444,2301
8445,1701
8446,1136
8447,1648
8448,2297
8449,1846
8450,1165
8451,1503
8452,2225
8453,1949
8454,1214
8455,1399
8456,2187
8457,2105
8458,1319
8459,1296
8460,2096
8461,2229
8462,1429
8463,1211
8464,1954
8465,2304
8466,1606
8467,1227
8468,1908
8469,2431
8470,1837
8471,1286
8472,1786
8473,2409
8474,1961
8475,1331
8476,1723
8477,2474
8478,2165
8479,1360
8480,1488
8481,2243
8482,2160
8483,1376
8484,1355
8485,2135
8486,2228
8487,1430
8488,1223
8489,1972
8490,2288
8491,1555
8492,1155
8493,1813
8494,2332
8495,1705
8496,1171
8497,1703
8498,2335
8499,1861
8500,1209
8501,1586
8502,2293
8503,1971
8504,1200
8505,1357
8506,2181
8507,2268
8508,1873
8509,2414
8510,4095
8511,4095
8512,4095
8513,3940
8514,4095
8515,3715
8516,2087
8517,1248
8518,1754
8519,2259
8520,1724
8521,1264
8522,1829
8523,2421
8524,1897
8525,1217
8526,1601
8527,2307
8528,1989
8529,1232
8530,1458
8531,2262
8532,2166
8533,1374
8534,1388
8535,2175
8536,2250
8537,1475
8538,1308
8539,2095
8540,2368
8541,1641
8542,1295
8543,1985
8544,2473
8545,1834
8546,1314
8547,1873
8548,2471
8549,1979
8550,1342
8551,1770
8552,2496
8553,2174
8554,1455
8555,1706
8556,2501
8557,2386
8558,1600
8559,1650
8560,2466
8561,2559
8562,1821
8563,1686
8564,2471
8565,2766
8566,2047
8567,1745
8568,2464
8569,2986
8570,2320
8571,1841
8572,2429
8573,3143
8574,2594
8575,1949
8576,2363
8577,3133
8578,2721
8579,1927
8580,2110
8581,2811
8582,2557
8583,1706
8584,1678
8585,2389
8586,2358
8587,1484
8588,1264
8589,1983
8590,2199
8591,1393
8592,1014
8593,1666
8594,2105
8595,1424
8596,929
8597,1505
8598,2087
8599,1535
8600,901
8601,1344
8602,2058
8603,1685
8604,945
8605,1197
8606,1973
8607,1823
8608,1057
8609,1126
8610,1926
8611,1949
8612,1177
8613,1057
8614,1834
8615,2065
8616,1306
8617,976
8618,1710
8619,2161
8620,1489
8621,1007
8622,1607
8623,2189
8624,1653
8625,1031
8626,1470
8627,2155
8628,1776
8629,1079
8630,1361
8631,2132
8632,1939
8633,1162
8634,1254
8635,2063
8636,2083
8637,1278
8638,1159
8639,1941
8640,2187
8641,1424
8642,1120
8643,1825
8644,2231
8645,1535
8646,1084
8647,1683
8648,2241
8649,1683
8650,1073
8651,1535
8652,2243
8653,1859
8654,1141
8655,1426
8656,2202
8657,2005
8658,1223
8659,1309
8660,2099
8661,2112
8662,1327
8663,1232
8664,2007
8665,2215
8666,1443
8667,1165
8668,1872
8669,2256
8670,1559
8671,1119
8672,1754
8673,2304
8674,1732
8675,1139
8676,1629
8677,2292
8678,1888
8679,1184
8680,1487
8681,2254
8682,2038
8683,1263
8684,1374
8685,2171
8686,2176
8687,1375
8688,1293
8689,2074
8690,2257
8691,1488
8692,1216
8693,1941
8694,2320
8695,1612
8696,1183
8697,1831
8698,2379
8699,1795
8700,1199
8701,1693
8702,2377
8703,1955
8704,1244
8705,1535
8706,2298
8707,2078
8708,1312
8709,1447
8710,2233
8711,2206
8712,1409
8713,1345
8714,2141
8715,2303
8716,1520
8717,1268
8718,2001
8719,2383
8720,1665
8721,1240
8722,1883
8723,2430
8724,1840
8725,1264
8726,1775
8727,2465
8728,2064
8729,1392
8730,1742
8731,2475
8732,2224
8733,1456
8734,1600
8735,2405
8736,2384
8737,1600
8738,1507
8739,2245
8740,2368
8741,1571
8742,1335
8743,2093
8744,2444
8745,1703
8746,1255
8747,1890
8748,2419
8749,1809
8750,1225
8751,1723
8752,2375
8753,1931
8754,1263
8755,1605
8756,2342
8757,2073
8758,1321
8759,1488
8760,2278
8761,2204
8762,1382
8763,1321
8764,2097
8765,2257
8766,1613
8767,1686
8768,2934
8769,4095
8770,4095
8771,3915
8772,4095
8773,4095
8774,3294
8775,2150
8776,2093
8777,2387
8778,1857
8779,1250
8780,1682
8781,2464
8782,2188
8783,1393
8784,1495
8785,2282
8786,2188
8787,1404
8788,1392
8789,2194
8790,2314
8791,1530
8792,1328
8793,2095
8794,2422
8795,1699
8796,1296
8797,1949
8798,2455
8799,1839
8800,1303
8801,1854
8802,2486
8803,2013
8804,1360
8805,1749
8806,2483
8807,2198
8808,1450
8809,1646
8810,2438
8811,2361
8812,1589
8813,1597
8814,2399
8815,2502
8816,1744
8817,1579
8818,2355
8819,2695
8820,1965
8821,1611
8822,2303
8823,2850
8824,2240
8825,1728
8826,2299
8827,2987
8828,2499
8829,1870
8830,2282
8831,3084
8832,2738
8833,1994
8834,2215
8835,3060
8836,2949
8837,2128
8838,2087
8839,2867
8840,2922
8841,2020
8842,1735
8843,2387
8844,2603
8845,1769
8846,1319
8847,1936
8848,2346
8849,1643
8850,1067
8851,1600
8852,2189
8853,1653
8854,981
8855,1364
8856,2089
8857,1747
8858,992
8859,1223
8860,1998
8861,1872
8862,1079
8863,1103
8864,1905
8865,1968
8866,1168
8867,998
8868,1779
8869,2075
8870,1323
8871,977
8872,1684
8873,2167
8874,1507
8875,976
8876,1558
8877,2159
8878,1638
8879,985
8880,1415
8881,2153
8882,1814
8883,1083
8884,1321
8885,2108
8886,1955
8887,1168
8888,1205
8889,2005
8890,2085
8891,1287
8892,1136
8893,1916
8894,2203
8895,1446
8896,1094
8897,1786
8898,2224
8899,1565
8900,1066
8901,1649
8902,2227
8903,1689
8904,1065
8905,1510
8906,2223
8907,1857
8908,1122
8909,1379
8910,2154
8911,1983
8912,1191
8913,1263
8914,2077
8915,2139
8916,1337
8917,1200
8918,1980
8919,2239
8920,1472
8921,1138
8922,1835
8923,2253
8924,1591
8925,1090
8926,1700
8927,2300
8928,1764
8929,1136
8930,1577
8931,2272
8932,1899
8933,1153
8934,1430
8935,2205
8936,2022
8937,1246
8938,1328
8939,2135
8940,2144
8941,1351
8942,1234
8943,2034
8944,2251
8945,1478
8946,1167
8947,1891
8948,2320
8949,1633
8950,1162
8951,1769
8952,2349
8953,1798
8954,1173
8955,1639
8956,2330
8957,1932
8958,1198
8959,1477
8960,2271
8961,2099
8962,1314
8963,1401
8964,2205
8965,2224
8966,1421
8967,1315
8968,2091
8969,2304
8970,1524
8971,1232
8972,1951
8973,2376
8974,1690
8975,1218
8976,1825
8977,2396
8978,1839
8979,1220
8980,1680
8981,2352
8982,1964
8983,1265
8984,1607
8985,2403
8986,2223
8987,1446
8988,1556
8989,2348
8990,2338
8991,1534
8992,1459
8993,2269
8994,2459
8995,1663
8996,1359
8997,2067
8998,2435
8999,1727
9000,1269
9001,1893
9002,2416
9003,1807
9004,1198
9005,1674
9006,2352
9007,1938
9008,1232
9009,1535
9010,2304
9011,2096
9012,1316
9013,1429
9014,2217
9015,2197
9016,1397
9017,1324
9018,2126
9019,2288
9020,1483
9021,1181
9022,1919
9023,2395
9024,1968
9025,1991
9026,3344
9027,4095
9028,4095
9029,3916
9030,4095
9031,4095
9032,2771
9033,1527
9034,1533
9035,2241
9036,2064
9037,1346
9038,1509
9039,2307
9040,2262
9041,1445
9042,1360
9043,2135
9044,2288
9045,1516
9046,1268
9047,2010
9048,2359
9049,1648
9050,1220
9051,1883
9052,2416
9053,1821
9054,1237
9055,1765
9056,2442
9057,2002
9058,1300
9059,1654
9060,2409
9061,2160
9062,1396
9063,1565
9064,2371
9065,2336
9066,1534
9067,1490
9068,2305
9069,2477
9070,1692
9071,1456
9072,2213
9073,2599
9074,1897
9075,1495
9076,2171
9077,2741
9078,2143
9079,1585
9080,2119
9081,2839
9082,2402
9083,1755
9084,2098
9085,2917
9086,2685
9087,1934
9088,2113
9089,2961
9090,2937
9091,2118
9092,2078
9093,2879
9094,3059
9095,2190
9096,1904
9097,2608
9098,2910
9099,2085
9100,1578
9101,2141
9102,2559
9103,1865
9104,1216
9105,1680
9106,2283
9107,1776
9108,1058
9109,1391
9110,2113
9111,1811
9112,1023
9113,1187
9114,1974
9115,1886
9116,1072
9117,1039
9118,1847
9119,1989
9120,1199
9121,980
9122,1734
9123,2083
9124,1344
9125,960
9126,1627
9127,2133
9128,1495
9129,944
9130,1491
9131,2147
9132,1677
9133,999
9134,1391
9135,2128
9136,1837
9137,1082
9138,1277
9139,2064
9140,1969
9141,1171
9142,1176
9143,1978
9144,2094
9145,1288
9146,1088
9147,1863
9148,2181
9149,1438
9150,1059
9151,1733
9152,2224
9153,1535
9154,1039
9155,1591
9156,2223
9157,1731
9158,1067
9159,1458
9160,2189
9161,1873
9162,1124
9163,1323
9164,2119
9165,2003
9166,1213
9167,1238
9168,2054
9169,2145
9170,1328
9171,1135
9172,1899
9173,2193
9174,1453
9175,1093
9176,1803
9177,2282
9178,1623
9179,1104
9180,1671
9181,2282
9182,1760
9183,1097
9184,1513
9185,2255
9186,1922
9187,1178
9188,1413
9189,2207
9190,2074
9191,1269
9192,1296
9193,2178
9194,2172
9195,1373
9196,1210
9197,1987
9198,2263
9199,1514
9200,1165
9201,1869
9202,2336
9203,1670
9204,1147
9205,1734
9206,2353
9207,1838
9208,1179
9209,1615
9210,2332
9211,1986
9212,1232
9213,1478
9214,2256
9215,2112
9216,1310
9217,1351
9218,2177
9219,2253
9220,1437
9221,1265
9222,2055
9223,2320
9224,1562
9225,1217
9226,1914
9227,2368
9228,1691
9229,1183
9230,1780
9231,2405
9232,1877
9233,1238
9234,1702
9235,2448
9236,2110
9237,1360
9238,1600
9239,2373
9240,2218
9241,1434
9242,1526
9243,2362
9244,2437
9245,1607
9246,1404
9247,2153
9248,2405
9249,1615
9250,1268
9251,1972
9252,2414
9253,1710
9254,1194
9255,1783
9256,2379
9257,1825
9258,1179
9259,1631
9260,2348
9261,1970
9262,1217
9263,1488
9264,2284
9265,2128
9266,1328
9267,1402
9268,2213
9269,2243
9270,1409
9271,1235
9272,1981
9273,2278
9274,1711
9275,1783
9276,3115
9277,4095
9278,4095
9279,3824
9280,4095
9281,4095
9282,2783
9283,1642
9284,1751
9285,2342
9286,1951
9287,1234
9288,1523
9289,2315
9290,2146
9291,1337
9292,1417
9293,2209
9294,2234
9295,1406
9296,1281
9297,2087
9298,2336
9299,1553
9300,1246
9301,1972
9302,2411
9303,1711
9304,1211
9305,1825
9306,2412
9307,1850
9308,1241
9309,1712
9310,2435
9311,2035
9312,1307
9313,1609
9314,2386
9315,2192
9316,1417
9317,1507
9318,2314
9319,2373
9320,1568
9321,1473
9322,2285
9323,2514
9324,1744
9325,1494
9326,2203
9327,2629
9328,1936
9329,1489
9330,2155
9331,2779
9332,2224
9333,1641
9334,2137
9335,2887
9336,2487
9337,1777
9338,2107
9339,2927
9340,2726
9341,1942
9342,2067
9343,2899
9344,2885
9345,2032
9346,1907
9347,2663
9348,2788
9349,1909
9350,1535
9351,2211
9352,2510
9353,1717
9354,1198
9355,1783
9356,2282
9357,1634
9358,975
9359,1423
9360,2080
9361,1618
9362,897
9363,1215
9364,1983
9365,1738
9366,939
9367,1072
9368,1885
9369,1857
9370,1036
9371,944
9372,1751
9373,1945
9374,1166
9375,913
9376,1679
9377,2064
9378,1337
9379,882
9380,1535
9381,2109
9382,1491
9383,885
9384,1387
9385,2099
9386,1673
9387,964
9388,1296
9389,2071
9390,1840
9391,1065
9392,1200
9393,1998
9394,1949
9395,1136
9396,1095
9397,1904
9398,2081
9399,1280
9400,1023
9401,1776
9402,2155
9403,1408
9404,973
9405,1630
9406,2183
9407,1572
9408,981
9409,1490
9410,2174
9411,1716
9412,1006
9413,1340
9414,2112
9415,1840
9416,1061
9417,1221
9418,2032
9419,1984
9420,1159
9421,1110
9422,1915
9423,2087
9424,1274
9425,1023
9426,1782
9427,2150
9428,1411
9429,993
9430,1671
9431,2208
9432,1584
9433,1003
9434,1529
9435,2185
9436,1710
9437,1006
9438,1375
9439,2165
9440,1893
9441,1111
9442,1277
9443,2083
9444,2015
9445,1200
9446,1168
9447,1973
9448,2122
9449,1325
9450,1101
9451,1871
9452,2214
9453,1466
9454,1063
9455,1727
9456,2243
9457,1615
9458,1048
9459,1601
9460,2262
9461,1783
9462,1091
9463,1468
9464,2224
9465,1931
9466,1158
9467,1330
9468,2126
9469,2043
9470,1242
9471,1245
9472,2063
9473,2182
9474,1376
9475,1166
9476,1936
9477,2251
9478,1501
9479,1104
9480,1783
9481,2267
9482,1634
9483,1102
9484,1662
9485,2303
9486,1818
9487,1149
9488,1530
9489,2275
9490,1979
9491,1246
9492,1473
9493,2294
9494,2199
9495,1392
9496,1405
9497,2224
9498,2335
9499,1562
9500,1379
9501,2125
9502,2395
9503,1618
9504,1213
9505,1889
9506,2384
9507,1737
9508,1185
9509,1718
9510,2332
9511,1820
9512,1142
9513,1520
9514,2256
9515,1952
9516,1199
9517,1419
9518,2222
9519,2112
9520,1296
9521,1306
9522,2127
9523,2213
9524,1408
9525,1221
9526,1974
9527,2256
9528,1471
9529,1156
9530,2045
9531,2930
9532,2800
9533,2857
9534,4095
9535,4095
9536,4095
9537,3155
9538,2905
9539,2906
9540,2046
9541,1097
9542,1345
9543,2234
9544,2176
9545,1385
9546,1494
9547,2189
9548,2235
9549,1414
9550,1238
9551,2031
9552,2309
9553,1535
9554,1200
9555,1904
9556,2378
9557,1714
9558,1201
9559,1779
9560,2401
9561,1877
9562,1222
9563,1659
9564,2393
9565,2064
9566,1319
9567,1582
9568,2368
9569,2224
9570,1424
9571,1477
9572,2293
9573,2356
9574,1579
9575,1440
9576,2240
9577,2512
9578,1773
9579,1451
9580,2174
9581,2624
9582,1959
9583,1475
9584,2098
9585,2736
9586,2224
9587,1616
9588,2090
9589,2858
9590,2512
9591,1803
9592,2068
9593,2901
9594,2768
9595,1986
9596,2081
9597,2934
9598,3029
9599,2181
9600,2022
9601,2805
9602,3099
9603,2213
9604,1798
9605,2422
9606,2802
9607,2026
9608,1441
9609,1958
9610,2487
9611,1873
9612,1174
9613,1565
9614,2224
9615,1803
9616,1031
9617,1279
9618,2066
9619,1881
9620,1072
9621,1132
9622,1934
9623,1971
9624,1145
9625,1006
9626,1799
9627,2047
9628,1266
9629,949
9630,1689
9631,2125
9632,1424
9633,935
9634,1535
9635,2146
9636,1594
9637,950
9638,1424
9639,2155
9640,1776
9641,1045
9642,1331
9643,2112
9644,1923
9645,1133
9646,1218
9647,2031
9648,2035
9649,1233
9650,1135
9651,1937
9652,2157
9653,1381
9654,1089
9655,1825
9656,2242
9657,1535
9658,1072
9659,1686
9660,2256
9661,1686
9662,1072
9663,1535
9664,2240
9665,1839
9666,1107
9667,1415
9668,2183
9669,1962
9670,1173
9671,1286
9672,2106
9673,2110
9674,1301
9675,1202
9676,2003
9677,2210
9678,1426
9679,1140
9680,1873
9681,2270
9682,1562
9683,1106
9684,1749
9685,2303
9686,1723
9687,1127
9688,1622
9689,2306
9690,1889
9691,1159
9692,1466
9693,2230
9694,2002
9695,1238
9696,1372
9697,2190
9698,2161
9699,1360
9700,1271
9701,2075
9702,2250
9703,1457
9704,1194
9705,1941
9706,2338
9707,1631
9708,1182
9709,1823
9710,2375
9711,1789
9712,1193
9713,1685
9714,2354
9715,1919
9716,1206
9717,1535
9718,2319
9719,2084
9720,1313
9721,1441
9722,2257
9723,2221
9724,1409
9725,1338
9726,2131
9727,2303
9728,1519
9729,1274
9730,2022
9731,2407
9732,1691
9733,1249
9734,1879
9735,2431
9736,1827
9737,1232
9738,1742
9739,2415
9740,1983
9741,1290
9742,1623
9743,2384
9744,2129
9745,1347
9746,1490
9747,2317
9748,2288
9749,1492
9750,1456
9751,2277
9752,2465
9753,1669
9754,1411
9755,2174
9756,2547
9757,1840
9758,1429
9759,2078
9760,2582
9761,1905
9762,1283
9763,1787
9764,2467
9765,2015
9766,1295
9767,1626
9768,2368
9769,2096
9770,1301
9771,1456
9772,2256
9773,2187
9774,1373
9775,1335
9776,2160
9777,2303
9778,1519
9779,1294
9780,2062
9781,2387
9782,1654
9783,1234
9784,1887
9785,2352
9786,1687
9787,1189
9788,1935
9789,3025
9790,3131
9791,3003
9792,4095
9793,4095
9794,4095
9795,3495
9796,2983
9797,2962
9798,2275
9799,1250
9800,1262
9801,2189
9802,2410
9803,1634
9804,1392
9805,2128
9806,2446
9807,1679
9808,1261
9809,1919
9810,2433
9811,1810
9812,1255
9813,1795
9814,2462
9815,1983
9816,1294
9817,1671
9818,2427
9819,2126
9820,1358
9821,1535
9822,2363
9823,2288
9824,1484
9825,1486
9826,2302
9827,2419
9828,1631
9829,1424
9830,2192
9831,2503
9832,1789
9833,1426
9834,2128
9835,2640
9836,1998
9837,1465
9838,2034
9839,2704
9840,2219
9841,1563
9842,1965
9843,2751
9844,2475
9845,1757
9846,1972
9847,2819
9848,2753
9849,1965
9850,1979
9851,2826
9852,2985
9853,2162
9854,1990
9855,2797
9856,3179
9857,2372
9858,1987
9859,2672
9860,3205
9861,2421
9862,1803
9863,2267
9864,2826
9865,2227
9866,1472
9867,1797
9868,2448
9869,2062
9870,1232
9871,1393
9872,2150
9873,1986
9874,1152
9875,1133
9876,1927
9877,2016
9878,1215
9879,1019
9880,1791
9881,2091
9882,1313
9883,933
9884,1629
9885,2113
9886,1443
9887,902
9888,1483
9889,2129
9890,1616
9891,956
9892,1387
9893,2131
9894,1792
9895,1035
9896,1263
9897,2070
9898,1935
9899,1125
9900,1161
9901,1975
9902,2064
9903,1261
9904,1097
9905,1885
9906,2159
9907,1397
9908,1052
9909,1749
9910,2203
9911,1535
9912,1043
9913,1646
9914,2250
9915,1721
9916,1073
9917,1506
9918,2224
9919,1859
9920,1115
9921,1363
9922,2174
9923,2009
9924,1213
9925,1257
9926,2081
9927,2122
9928,1315
9929,1173
9930,1959
9931,2214
9932,1425
9933,1094
9934,1809
9935,2269
9936,1600
9937,1102
9938,1699
9939,2302
9940,1763
9941,1114
9942,1535
9943,2245
9944,1881
9945,1158
9946,1425
9947,2224
9948,2065
9949,1261
9950,1317
9951,2125
9952,2163
9953,1356
9954,1210
9955,1998
9956,2256
9957,1487
9958,1172
9959,1894
9960,2323
9961,1647
9962,1145
9963,1760
9964,2349
9965,1793
9966,1151
9967,1601
9968,2308
9969,1936
9970,1213
9971,1489
9972,2288
9973,2112
9974,1299
9975,1360
9976,2169
9977,2209
9978,1392
9979,1281
9980,2085
9981,2333
9982,1559
9983,1231
9984,1958
9985,2386
9986,1683
9987,1189
9988,1793
9989,2394
9990,1837
9991,1212
9992,1667
9993,2385
9994,1995
9995,1255
9996,1527
9997,2320
9998,2124
9999,1310
10000,1403
10001,2229
10002,2293
10003,1511
10004,1418
10005,2226
10006,2454
10007,1658
10008,1294
10009,2080
10010,2512
10011,1843
10012,1387
10013,1987
10014,2517
10015,1892
10016,1253
10017,1727
10018,2418
10019,1999
10020,1254
10021,1535
10022,2298
10023,2078
10024,1269
10025,1378
10026,2192
10027,2176
10028,1366
10029,1268
10030,2075
10031,2267
10032,1487
10033,1206
10034,1953
10035,2357
10036,1655
10037,1200
10038,1808
10039,2327
10040,1712
10041,1183
10042,1911
10043,3088
10044,3334
10045,3137
10046,4095
10047,4095
10048,4095
10049,3216
10050,2672
10051,2735
10052,2229
10053,1252
10054,1190
10055,2123
10056,2386
10057,1615
10058,1323
10059,2033
10060,2396
10061,1648
10062,1185
10063,1818
10064,2371
10065,1780
10066,1189
10067,1705
10068,2385
10069,1946
10070,1232
10071,1584
10072,2349
10073,2111
10074,1323
10075,1463
10076,2275
10077,2240
10078,1437
10079,1393
10080,2219
10081,2387
10082,1599
10083,1349
10084,2112
10085,2487
10086,1766
10087,1344
10088,2019
10089,2559
10090,1984
10091,1414
10092,1942
10093,2639
10094,2207
10095,1527
10096,1899
10097,2682
10098,2434
10099,1687
10100,1861
10101,2714
10102,2704
10103,1936
10104,1922
10105,2764
10106,2960
10107,2166
10108,1936
10109,2699
10110,3130
10111,2336
10112,1905
10113,2554
10114,3115
10115,2383
10116,1730
10117,2165
10118,2755
10119,2199
10120,1408
10121,1675
10122,2352
10123,2013
10124,1189
10125,1313
10126,2095
10127,1989
10128,1140
10129,1081
10130,1873
10131,2011
10132,1185
10133,928
10134,1696
10135,2063
10136,1322
10137,901
10138,1574
10139,2110
10140,1470
10141,891
10142,1429
10143,2098
10144,1616
10145,851
10146,1293
10147,2061
10148,1787
10149,1013
10150,1207
10151,2019
10152,1937
10153,1133
10154,1104
10155,1931
10156,2054
10157,1239
10158,1037
10159,1815
10160,2145
10161,1403
10162,1019
10163,1712
10164,2215
10165,1575
10166,1009
10167,1573
10168,2217
10169,1726
10170,1042
10171,1427
10172,2176
10173,1879
10174,1107
10175,1319
10176,2112
10177,2005
10178,1200
10179,1200
10180,2011
10181,2126
10182,1328
10183,1130
10184,1885
10185,2185
10186,1438
10187,1070
10188,1754
10189,2230
10190,1593
10191,1070
10192,1635
10193,2273
10194,1767
10195,1103
10196,1495
10197,2243
10198,1920
10199,1157
10200,1374
10201,2159
10202,2045
10203,1250
10204,1270
10205,2081
10206,2163
10207,1359
10208,1185
10209,1967
10210,2251
10211,1489
10212,1141
10213,1852
10214,2341
10215,1679
10216,1140
10217,1712
10218,2337
10219,1822
10220,1164
10221,1575
10222,2301
10223,1963
10224,1212
10225,1447
10226,2239
10227,2113
10228,1308
10229,1359
10230,2178
10231,2231
10232,1408
10233,1247
10234,2030
10235,2338
10236,1584
10237,1222
10238,1920
10239,2368
10240,1719
10241,1230
10242,1845
10243,2476
10244,1968
10245,1317
10246,1727
10247,2457
10248,2128
10249,1401
10250,1663
10251,2466
10252,2297
10253,1444
10254,1445
10255,2225
10256,2279
10257,1487
10258,1343
10259,2125
10260,2358
10261,1567
10262,1222
10263,1919
10264,2384
10265,1709
10266,1195
10267,1784
10268,2394
10269,1863
10270,1216
10271,1663
10272,2368
10273,2001
10274,1239
10275,1523
10276,2293
10277,2099
10278,1265
10279,1319
10280,2220
10281,2502
10282,2123
10283,2555
10284,4095
10285,4095
10286,4095
10287,3673
10288,3998
10289,3441
10290,2014
10291,1213
10292,1757
10293,2397
10294,1879
10295,1261
10296,1712
10297,2430
10298,2063
10299,1309
10300,1579
10301,2338
10302,2148
10303,1361
10304,1443
10305,2259
10306,2267
10307,1462
10308,1354
10309,2147
10310,2382
10311,1603
10312,1291
10313,2019
10314,2466
10315,1781
10316,1299
10317,1915
10318,2492
10319,1932
10320,1322
10321,1799
10322,2505
10323,2134
10324,1411
10325,1719
10326,2510
10327,2323
10328,1535
10329,1643
10330,2467
10331,2498
10332,1711
10333,1618
10334,2432
10335,2672
10336,1911
10337,1661
10338,2419
10339,2867
10340,2183
10341,1745
10342,2387
10343,3055
10344,2461
10345,1872
10346,2367
10347,3142
10348,2699
10349,1984
10350,2277
10351,3107
10352,2828
10353,1977
10354,2018
10355,2765
10356,2685
10357,1776
10358,1591
10359,2289
10360,2428
10361,1580
10362,1225
10363,1902
10364,2228
10365,1472
10366,994
10367,1631
10368,2183
10369,1575
10370,944
10371,1433
10372,2134
10373,1708
10374,959
10375,1262
10376,2017
10377,1789
10378,1023
10379,1178
10380,1994
10381,1957
10382,1154
10383,1090
10384,1888
10385,2063
10386,1265
10387,1003
10388,1778
10389,2188
10390,1465
10391,1011
10392,1661
10393,2218
10394,1622
10395,1023
10396,1529
10397,2193
10398,1754
10399,1049
10400,1407
10401,2191
10402,1936
10403,1142
10404,1287
10405,2121
10406,2080
10407,1255
10408,1181
10409,1987
10410,2175
10411,1381
10412,1133
10413,1872
10414,2226
10415,1503
10416,1079
10417,1738
10418,2241
10419,1620
10420,1053
10421,1598
10422,2257
10423,1799
10424,1095
10425,1452
10426,2230
10427,1959
10428,1168
10429,1319
10430,2112
10431,2064
10432,1258
10433,1232
10434,2021
10435,2183
10436,1382
10437,1152
10438,1911
10439,2256
10440,1507
10441,1089
10442,1767
10443,2299
10444,1680
10445,1104
10446,1647
10447,2320
10448,1856
10449,1156
10450,1504
10451,2247
10452,1966
10453,1198
10454,1386
10455,2194
10456,2116
10457,1308
10458,1294
10459,2112
10460,2247
10461,1455
10462,1255
10463,2059
10464,2421
10465,1701
10466,1297
10467,1946
10468,2448
10469,1835
10470,1296
10471,1866
10472,2517
10473,2000
10474,1279
10475,1609
10476,2337
10477,2033
10478,1273
10479,1456
10480,2242
10481,2133
10482,1315
10483,1296
10484,2085
10485,2193
10486,1392
10487,1185
10488,1959
10489,2283
10490,1535
10491,1168
10492,1855
10493,2343
10494,1698
10495,1150
10496,1710
10497,2320
10498,1797
10499,1088
10500,1529
10501,2471
10502,2539
10503,2299
10504,3195
10505,4095
10506,4095
10507,3993
10508,3645
10509,3833
10510,2820
10511,1456
10512,1079
10513,1931
10514,2338
10515,1658
10516,1290
10517,1968
10518,2416
10519,1728
10520,1173
10521,1744
10522,2391
10523,1885
10524,1209
10525,1616
10526,2346
10527,2018
10528,1267
10529,1493
10530,2288
10531,2145
10532,1358
10533,1407
10534,2239
10535,2322
10536,1523
10537,1361
10538,2144
10539,2433
10540,1683
10541,1331
10542,2027
10543,2515
10544,1869
10545,1362
10546,1947
10547,2583
10548,2078
10549,1433
10550,1869
10551,2606
10552,2256
10553,1511
10554,1787
10555,2606
10556,2487
10557,1730
10558,1819
10559,2657
10560,2767
10561,1968
10562,1838
10563,2652
10564,3008
10565,2234
10566,1897
10567,2624
10568,3193
10569,2448
10570,1921
10571,2497
10572,3154
10573,2502
10574,1792
10575,2154
10576,2800
10577,2343
10578,1509
10579,1691
10580,2399
10581,2166
10582,1299
10583,1309
10584,2077
10585,2069
10586,1230
10587,1054
10588,1826
10589,2062
10590,1286
10591,945
10592,1686
10593,2123
10594,1415
10595,907
10596,1505
10597,2112
10598,1559
10599,911
10600,1380
10601,2102
10602,1719
10603,976
10604,1266
10605,2067
10606,1898
10607,1083
10608,1152
10609,1968
10610,2013
10611,1211
10612,1091
10613,1904
10614,2129
10615,1349
10616,1040
10617,1780
10618,2215
10619,1521
10620,1015
10621,1634
10622,2228
10623,1680
10624,1055
10625,1521
10626,2224
10627,1835
10628,1107
10629,1397
10630,2183
10631,1972
10632,1167
10633,1264
10634,2094
10635,2126
10636,1299
10637,1187
10638,1983
10639,2195
10640,1413
10641,1107
10642,1838
10643,2243
10644,1557
10645,1093
10646,1730
10647,2311
10648,1728
10649,1099
10650,1578
10651,2270
10652,1864
10653,1135
10654,1447
10655,2223
10656,2000
10657,1216
10658,1333
10659,2159
10660,2153
10661,1335
10662,1247
10663,2037
10664,2267
10665,1456
10666,1168
10667,1914
10668,2308
10669,1601
10670,1133
10671,1779
10672,2329
10673,1743
10674,1133
10675,1638
10676,2363
10677,1973
10678,1281
10679,1627
10680,2414
10681,2185
10682,1375
10683,1508
10684,2321
10685,2300
10686,1507
10687,1450
10688,2230
10689,2369
10690,1535
10691,1254
10692,2006
10693,2401
10694,1659
10695,1167
10696,1785
10697,2322
10698,1728
10699,1119
10700,1630
10701,2297
10702,1863
10703,1149
10704,1493
10705,2274
10706,2019
10707,1223
10708,1360
10709,2177
10710,2160
10711,1347
10712,1269
10713,2043
10714,2176
10715,1366
10716,1207
10717,2234
10718,3095
10719,2917
10720,3066
10721,4095
10722,4095
10723,4095
10724,3047
10725,2831
10726,2750
10727,1845
10728,1023
10729,1450
10730,2308
10731,2096
10732,1318
10733,1469
10734,2261
10735,2179
10736,1341
10737,1296
10738,2110
10739,2270
10740,1457
10741,1206
10742,1968
10743,2307
10744,1583
10745,1172
10746,1855
10747,2359
10748,1737
10749,1169
10750,1725
10751,2387
10752,1924
10753,1225
10754,1586
10755,2351
10756,2090
10757,1323
10758,1503
10759,2317
10760,2251
10761,1450
10762,1426
10763,2240
10764,2399
10765,1619
10766,1410
10767,2192
10768,2550
10769,1837
10770,1446
10771,2140
10772,2662
10773,2039
10774,1509
10775,2091
10776,2795
10777,2336
10778,1675
10779,2075
10780,2866
10781,2598
10782,1843
10783,2030
10784,2843
10785,2743
10786,1919
10787,1897
10788,2686
10789,2754
10790,1872
10791,1588
10792,2265
10793,2508
10794,1663
10795,1168
10796,1774
10797,2211
10798,1507
10799,906
10800,1420
10801,2032
10802,1502
10803,791
10804,1168
10805,1910
10806,1599
10807,815
10808,1003
10809,1810
10810,1709
10811,900
10812,895
10813,1711
10814,1795
10815,983
10816,801
10817,1598
10818,1903
10819,1137
10820,766
10821,1456
10822,1975
10823,1328
10824,786
10825,1337
10826,1978
10827,1467
10828,807
10829,1227
10830,1966
10831,1642
10832,869
10833,1088
10834,1900
10835,1791
10836,976
10837,991
10838,1814
10839,1889
10840,1088
10841,895
10842,1678
10843,1974
10844,1206
10845,838
10846,1529
10847,2011
10848,1345
10849,815
10850,1392
10851,1999
10852,1469
10853,805
10854,1219
10855,1975
10856,1649
10857,894
10858,1117
10859,1887
10860,1733
10861,944
10862,976
10863,1797
10864,1858
10865,1040
10866,867
10867,1678
10868,1962
10869,1195
10870,828
10871,1522
10872,1978
10873,1311
10874,799
10875,1383
10876,1969
10877,1430
10878,784
10879,1229
10880,1967
10881,1613
10882,858
10883,1099
10884,1904
10885,1754
10886,944
10887,981
10888,1787
10889,1847
10890,1040
10891,899
10892,1691
10893,1945
10894,1169
10895,826
10896,1535
10897,1971
10898,1280
10899,776
10900,1382
10901,1986
10902,1453
10903,816
10904,1263
10905,1979
10906,1605
10907,850
10908,1104
10909,1882
10910,1712
10911,915
10912,989
10913,1813
10914,1882
10915,1122
10916,1015
10917,1811
10918,2028
10919,1250
10920,939
10921,1680
10922,2112
10923,1450
10924,983
10925,1569
10926,2112
10927,1504
10928,851
10929,1301
10930,2007
10931,1608
10932,862
10933,1121
10934,1885
10935,1683
10936,897
10937,976
10938,1781
10939,1792
10940,1001
10941,906
10942,1697
10943,1918
10944,1152
10945,852
10946,1593
10947,2002
10948,1328
10949,861
10950,1465
10951,1999
10952,1392
10953,834
10954,1487
10955,2529
10956,2670
10957,2559
10958,3543
10959,4095
10960,4095
10961,2957
10962,2482
10963,2559
10964,2075
10965,1085
10966,1008
10967,1872
10968,2117
10969,1381
10970,1102
10971,1803
10972,2175
10973,1462
10974,1008
10975,1631
10976,2189
10977,1621
10978,1019
10979,1488
10980,2151
10981,1744
10982,1072
10983,1398
10984,2157
10985,1936
10986,1185
10987,1321
10988,2118
10989,2107
10990,1326
10991,1246
10992,2019
10993,2206
10994,1465
10995,1222
10996,1966
10997,2326
10998,1643
10999,1227
11000,1867
11001,2416
11002,1840
11003,1268
11004,1776
11005,2460
11006,2071
11007,1408
11008,1753
11009,2500
11010,2287
11011,1582
11012,1749
11013,2549
11014,2534
11015,1791
11016,1776
11017,2581
11018,2798
11019,2045
11020,1815
11021,2551
11022,2939
11023,2229
11024,1810
11025,2413
11026,2890
11027,2224
11028,1607
11029,2032
11030,2614
11031,2096
11032,1328
11033,1580
11034,2224
11035,1910
11036,1106
11037,1203
11038,1937
11039,1835
11040,1037
11041,976
11042,1753
11043,1874
11044,1089
11045,855
11046,1600
11047,1933
11048,1212
11049,799
11050,1438
11051,1959
11052,1361
11053,816
11054,1326
11055,1950
11056,1515
11057,863
11058,1229
11059,1942
11060,1664
11061,915
11062,1099
11063,1900
11064,1840
11065,1056
11066,1040
11067,1808
11068,1935
11069,1163
11070,967
11071,1708
11072,2002
11073,1293
11074,919
11075,1589
11076,2094
11077,1475
11078,938
11079,1456
11080,2090
11081,1616
11082,953
11083,1314
11084,2023
11085,1730
11086,999
11087,1206
11088,1982
11089,1894
11090,1119
11091,1113
11092,1887
11093,1984
11094,1212
11095,1014
11096,1754
11097,2058
11098,1343
11099,979
11100,1654
11101,2147
11102,1520
11103,985
11104,1517
11105,2119
11106,1638
11107,989
11108,1389
11109,2102
11110,1797
11111,1070
11112,1271
11113,2039
11114,1932
11115,1161
11116,1168
11117,1943
11118,2032
11119,1266
11120,1089
11121,1840
11122,2109
11123,1389
11124,1040
11125,1715
11126,2186
11127,1535
11128,1023
11129,1577
11130,2173
11131,1683
11132,1064
11133,1462
11134,2157
11135,1831
11136,1108
11137,1333
11138,2107
11139,1983
11140,1210
11141,1226
11142,1991
11143,2070
11144,1319
11145,1171
11146,1920
11147,2177
11148,1439
11149,1111
11150,1791
11151,2249
11152,1598
11153,1101
11154,1648
11155,2240
11156,1745
11157,1138
11158,1559
11159,2240
11160,1903
11161,1191
11162,1424
11163,2189
11164,2058
11165,1309
11166,1390
11167,2194
11168,2259
11169,1505
11170,1359
11171,2112
11172,2353
11173,1631
11174,1328
11175,2035
11176,2480
11177,1803
11178,1270
11179,1806
11180,2363
11181,1851
11182,1233
11183,1645
11184,2297
11185,1919
11186,1215
11187,1472
11188,2224
11189,2066
11190,1295
11191,1360
11192,2141
11193,2185
11194,1401
11195,1269
11196,2027
11197,2282
11198,1535
11199,1249
11200,1927
11201,2339
11202,1661
11203,1136
11204,1707
11205,2411
11206,2197
11207,2102
11208,3207
11209,4095
11210,4095
11211,3935
11212,3929
11213,4095
11214,2782
11215,1471
11216,1316
11217,2101
11218,2206
11219,1504
11220,1433
11221,2185
11222,2389
11223,1617
11224,1295
11225,1959
11226,2355
11227,1683
11228,1234
11229,1767
11230,2372
11231,1840
11232,1264
11233,1728
11234,2393
11235,2011
11236,1321
11237,1597
11238,2350
11239,2160
11240,1421
11241,1535
11242,2320
11243,2339
11244,1583
11245,1483
11246,2241
11247,2459
11248,1725
11249,1453
11250,2160
11251,2545
11252,1895
11253,1475
11254,2105
11255,2659
11256,2126
11257,1563
11258,2039
11259,2750
11260,2366
11261,1692
11262,1999
11263,2770
11264,2604
11265,1901
11266,2034
11267,2848
11268,2864
11269,2097
11270,2034
11271,2835
11272,3115
11273,2317
11274,2047
11275,2765
11276,3223
11277,2428
11278,1941
11279,2483
11280,2970
11281,2294
11282,1643
11283,2015
11284,2601
11285,2117
11286,1361
11287,1617
11288,2298
11289,2032
11290,1250
11291,1347
11292,2096
11293,2033
11294,1247
11295,1165
11296,1924
11297,2086
11298,1338
11299,1095
11300,1811
11301,2176
11302,1481
11303,1072
11304,1692
11305,2224
11306,1648
11307,1078
11308,1573
11309,2228
11310,1814
11311,1145
11312,1471
11313,2196
11314,1951
11315,1223
11316,1375
11317,2157
11318,2107
11319,1328
11320,1276
11321,2064
11322,2234
11323,1472
11324,1233
11325,1957
11326,2318
11327,1616
11328,1191
11329,1820
11330,2334
11331,1756
11332,1218
11333,1729
11334,2345
11335,1909
11336,1265
11337,1600
11338,2320
11339,2064
11340,1303
11341,1456
11342,2249
11343,2199
11344,1429
11345,1395
11346,2159
11347,2288
11348,1535
11349,1319
11350,2038
11351,2346
11352,1649
11353,1280
11354,1930
11355,2436
11356,1838
11357,1293
11358,1802
11359,2445
11360,1989
11361,1328
11362,1666
11363,2379
11364,2118
11365,1396
11366,1584
11367,2343
11368,2256
11369,1486
11370,1475
11371,2256
11372,2377
11373,1605
11374,1394
11375,2133
11376,2465
11377,1759
11378,1377
11379,2019
11380,2505
11381,1907
11382,1374
11383,1904
11384,2507
11385,2025
11386,1390
11387,1751
11388,2480
11389,2193
11390,1469
11391,1663
11392,2419
11393,2332
11394,1559
11395,1535
11396,2321
11397,2415
11398,1653
11399,1475
11400,2233
11401,2538
11402,1817
11403,1448
11404,2107
11405,2596
11406,1968
11407,1441
11408,1958
11409,2559
11410,2096
11411,1468
11412,1872
11413,2611
11414,2315
11415,1607
11416,1827
11417,2559
11418,2444
11419,1682
11420,1716
11421,2530
11422,2675
11423,1890
11424,1677
11425,2361
11426,2618
11427,1872
11428,1507
11429,2175
11430,2621
11431,1958
11432,1442
11433,1987
11434,2585
11435,2086
11436,1446
11437,1842
11438,2544
11439,2224
11440,1486
11441,1711
11442,2470
11443,2352
11444,1584
11445,1623
11446,2401
11447,2464
11448,1679
11449,1486
11450,2186
11451,2448
11452,1852
11453,1840
11454,3061
11455,4095
11456,4095
11457,4095
11458,4095
11459,4095
11460,3532
11461,2289
11462,2165
11463,2544
11464,2141
11465,1459
11466,1744
11467,2531
11468,2397
11469,1642
11470,1677
11471,2439
11472,2481
11473,1696
11474,1534
11475,2290
11476,2559
11477,1827
11478,1503
11479,2190
11480,2621
11481,1968
11482,1489
11483,2070
11484,2650
11485,2126
11486,1489
11487,1922
11488,2644
11489,2303
11490,1600
11491,1843
11492,2622
11493,2466
11494,1701
11495,1765
11496,2543
11497,2591
11498,1819
11499,1706
11500,2478
11501,2736
11502,2000
11503,1711
11504,2425
11505,2885
11506,2224
11507,1767
11508,2358
11509,3011
11510,2470
11511,1887
11512,2349
11513,3133
11514,2753
11515,2057
11516,2329
11517,3189
11518,2983
11519,2194
11520,2291
11521,3150
11522,3195
11523,2315
11524,2165
11525,2915
11526,3150
11527,2254
11528,1862
11529,2455
11530,2795
11531,2031
11532,1483
11533,2007
11534,2515
11535,1915
11536,1269
11537,1683
11538,2320
11539,1905
11540,1183
11541,1456
11542,2213
11543,1998
11544,1221
11545,1317
11546,2111
11547,2113
11548,1311
11549,1207
11550,1985
11551,2180
11552,1423
11553,1136
11554,1869
11555,2272
11556,1580
11557,1122
11558,1759
11559,2333
11560,1766
11561,1153
11562,1633
11563,2299
11564,1898
11565,1182
11566,1489
11567,2263
11568,2061
11569,1276
11570,1394
11571,2205
11572,2195
11573,1382
11574,1294
11575,2077
11576,2277
11577,1489
11578,1211
11579,1945
11580,2327
11581,1607
11582,1168
11583,1815
11584,2377
11585,1786
11586,1173
11587,1664
11588,2341
11589,1905
11590,1193
11591,1503
11592,2265
11593,2025
11594,1261
11595,1395
11596,2203
11597,2176
11598,1366
11599,1289
11600,2086
11601,2256
11602,1468
11603,1211
11604,1957
11605,2318
11606,1612
11607,1169
11608,1827
11609,2381
11610,1778
11611,1175
11612,1679
11613,2345
11614,1900
11615,1204
11616,1555
11617,2316
11618,2059
11619,1277
11620,1430
11621,2253
11622,2218
11623,1392
11624,1328
11625,2123
11626,2272
11627,1481
11628,1251
11629,2011
11630,2377
11631,1648
11632,1221
11633,1875
11634,2427
11635,1801
11636,1205
11637,1728
11638,2402
11639,1943
11640,1246
11641,1600
11642,2359
11643,2096
11644,1326
11645,1483
11646,2288
11647,2226
11648,1408
11649,1365
11650,2192
11651,2360
11652,1559
11653,1308
11654,2064
11655,2397
11656,1662
11657,1263
11658,1920
11659,2433
11660,1807
11661,1250
11662,1827
11663,2543
11664,2098
11665,1395
11666,1743
11667,2471
11668,2198
11669,1449
11670,1650
11671,2480
11672,2378
11673,1520
11674,1456
11675,2249
11676,2373
11677,1569
11678,1343
11679,2097
11680,2412
11681,1648
11682,1227
11683,1874
11684,2371
11685,1737
11686,1185
11687,1743
11688,2382
11689,1893
11690,1196
11691,1580
11692,2347
11693,2047
11694,1259
11695,1445
11696,2256
11697,2160
11698,1319
11699,1278
11700,2098
11701,2345
11702,1853
11703,2131
11704,3809
11705,4095
11706,4095
11707,3777
11708,4095
11709,4077
11710,2429
11711,1386
11712,1687
11713,2301
11714,1870
11715,1264
11716,1693
11717,2442
11718,2095
11719,1264
11720,1470
11721,2256
11722,2128
11723,1328
11724,1347
11725,2182
11726,2277
11727,1469
11728,1280
11729,2070
11730,2378
11731,1621
11732,1233
11733,1937
11734,2431
11735,1778
11736,1244
11737,1835
11738,2479
11739,1964
11740,1286
11741,1691
11742,2438
11743,2122
11744,1360
11745,1605
11746,2416
11747,2294
11748,1501
11749,1535
11750,2383
11751,2487
11752,1680
11753,1503
11754,2299
11755,2618
11756,1887
11757,1564
11758,2299
11759,2805
11760,2160
11761,1654
11762,2258
11763,2950
11764,2423
11765,1776
11766,2222
11767,3019
11768,2671
11769,1931
11770,2176
11771,3025
11772,2863
11773,1989
11774,1969
11775,2705
11776,2697
11777,1802
11778,1535
11779,2263
11780,2463
11781,1616
11782,1198
11783,1837
11784,2249
11785,1517
11786,962
11787,1514
11788,2094
11789,1535
11790,863
11791,1307
11792,2045
11793,1685
11794,899
11795,1147
11796,1936
11797,1774
11798,967
11799,1022
11800,1851
11801,1908
11802,1095
11803,949
11804,1744
11805,1993
11806,1227
11807,901
11808,1639
11809,2092
11810,1394
11811,901
11812,1502
11813,2110
11814,1570
11815,927
11816,1377
11817,2094
11818,1721
11819,982
11820,1262
11821,2059
11822,1874
11823,1066
11824,1132
11825,1943
11826,1978
11827,1168
11828,1054
11829,1849
11830,2086
11831,1302
11832,981
11833,1709
11834,2148
11835,1456
11836,964
11837,1583
11838,2146
11839,1584
11840,971
11841,1442
11842,2166
11843,1783
11844,1049
11845,1319
11846,2076
11847,1893
11848,1106
11849,1210
11850,2019
11851,2029
11852,1222
11853,1115
11854,1915
11855,2145
11856,1341
11857,1042
11858,1783
11859,2195
11860,1500
11861,1023
11862,1655
11863,2231
11864,1664
11865,1050
11866,1489
11867,2208
11868,1823
11869,1101
11870,1397
11871,2161
11872,1947
11873,1170
11874,1282
11875,2098
11876,2091
11877,1279
11878,1115
11879,1975
11880,2192
11881,1409
11882,1125
11883,1857
11884,2256
11885,1559
11886,1102
11887,1743
11888,2285
11889,1698
11890,1099
11891,1598
11892,2298
11893,1895
11894,1176
11895,1479
11896,2240
11897,2003
11898,1232
11899,1363
11900,2173
11901,2155
11902,1343
11903,1265
11904,2064
11905,2255
11906,1473
11907,1211
11908,1950
11909,2334
11910,1616
11911,1168
11912,1799
11913,2368
11914,1791
11915,1216
11916,1739
11917,2447
11918,2022
11919,1327
11920,1657
11921,2398
11922,2160
11923,1392
11924,1566
11925,2399
11926,2375
11927,1529
11928,1406
11929,2165
11930,2323
11931,1535
11932,1297
11933,2029
11934,2361
11935,1619
11936,1193
11937,1829
11938,2384
11939,1772
11940,1175
11941,1679
11942,2331
11943,1901
11944,1211
11945,1554
11946,2310
11947,2054
11948,1280
11949,1438
11950,2251
11951,2192
11952,1350
11953,1245
11954,2064
11955,2366
11956,1898
