Sample_Index,ADC_Value
0,1535
1,1855
2,1601
3,1317
4,1491
5,1830
6,1702
7,1360
8,1434
9,1825
10,1829
11,1476
12,1497
13,1904
14,1945
15,1588
16,1521
17,1872
18,2047
19,1774
20,1611
21,1905
22,2192
23,1963
24,0
25,0
26,2331
27,2110
28,1822
29,2012
30,2361
31,2245
32,1934
33,1990
34,0
35,2304
36,1908
37,1814
38,2125
39,2121
40,1672
41,1501
42,1805
43,1850
44,1350
45,1200
46,1410
47,1591
48,1273
49,0
50,0
51,1520
52,1259
53,946
54,1118
55,1444
56,1323
57,973
58,1023
59,1409
60,1412
61,1045
62,1034
63,1422
64,1449
65,0
66,1009
67,1375
68,1520
69,1194
70,1007
71,1339
72,1619
73,1316
74,1055
75,1307
76,1616
77,1389
78,1103
79,1249
80,1583
81,1458
82,1127
83,1206
84,1606
85,1535
86,0
87,1180
88,1561
89,1584
90,1229
91,1157
92,1489
93,1653
94,1316
95,1127
96,1438
97,1681
98,1353
99,1114
100,1362
101,1643
102,1441
103,1152
104,1302
105,1654
106,1521
107,1183
108,1286
109,1649
110,1579
111,1237
112,1236
113,1579
114,1616
115,1252
116,1163
117,1535
118,1710
119,1344
120,1200
121,1529
122,1735
123,1459
124,1200
125,1409
126,1771
127,1559
128,1252
129,1430
130,1761
131,1607
132,1280
133,1357
134,1727
135,1715
136,1351
137,1347
138,1731
139,1742
140,1373
141,1328
142,1675
143,1823
144,1503
145,1310
146,0
147,1863
148,1558
149,1337
150,1626
151,1884
152,1648
153,1364
154,1535
155,1889
156,1751
157,1407
158,1495
159,1891
160,1834
161,1469
162,1487
163,1840
164,1869
165,1567
166,1511
167,1858
168,2032
169,1715
170,1525
171,0
172,2064
173,1761
174,1589
175,1882
176,2128
177,1879
178,1535
179,1675
180,1985
181,1871
182,1522
183,1589
184,1926
185,1847
186,1487
187,1520
188,1895
189,1885
190,1518
191,1455
192,1794
193,1923
194,1601
195,1438
196,1663
197,1985
198,1685
199,1441
200,1698
201,1916
202,1617
203,1453
204,1907
205,2683
206,3241
207,3697
208,4095
209,0
210,4095
211,3486
212,2753
213,2457
214,2003
215,1465
216,1422
217,1851
218,1997
219,1687
220,1557
221,1837
222,2014
223,1715
224,1469
225,1718
226,2026
227,1817
228,1502
229,1680
230,2038
231,1887
232,1555
233,1675
234,2046
235,1949
236,1601
237,1658
238,2018
239,2064
240,1729
241,1653
242,1999
243,2154
244,1827
245,1654
246,1981
247,2223
248,1925
249,1722
250,2000
251,2279
252,2014
253,1771
254,1984
255,2317
256,2192
257,1887
258,1987
259,2396
260,2382
261,2039
262,2095
263,2495
264,2517
265,2181
266,2145
267,2505
268,2666
269,2378
270,2230
271,2533
272,2793
273,2497
274,2245
275,2483
276,2764
277,2445
278,2111
279,2240
280,2479
281,2238
282,1845
283,1861
284,2128
285,2000
286,1584
287,1527
288,1872
289,1882
290,1472
291,1405
292,1775
293,1856
294,1483
295,1323
296,1631
297,1831
298,1534
299,1298
300,1632
301,1887
302,1625
303,1348
304,1558
305,1859
306,1680
307,1379
308,1500
309,1852
310,1786
311,1426
312,1439
313,1846
314,1904
315,1528
316,1465
317,1842
318,1927
319,0
320,1430
321,1751
322,1937
323,1646
324,1423
325,1693
326,1985
327,1745
328,1434
329,1647
330,1968
331,1756
332,1433
333,1567
334,1933
335,1862
336,1520
337,1520
338,1863
339,1905
340,1535
341,1472
342,1855
343,1955
344,1575
345,1447
346,1792
347,1981
348,1679
349,1457
350,1712
351,1987
352,1758
353,1456
354,1664
355,2014
356,1809
357,1466
358,1605
359,1975
360,1863
361,1522
362,1581
363,1938
364,1967
365,1607
366,1513
367,1869
368,2001
369,1661
370,1499
371,1847
372,2021
373,1687
374,1488
375,1773
376,2030
377,1807
378,1513
379,1700
380,2053
381,1884
382,1525
383,1659
384,2042
385,1922
386,1577
387,1633
388,2006
389,2020
390,1666
391,1587
392,1936
393,2084
394,1730
395,1564
396,1906
397,2101
398,1761
399,0
400,1906
401,2181
402,1942
403,1655
404,1849
405,2198
406,2044
407,1678
408,1888
409,2261
410,2124
411,1731
412,1711
413,2057
414,2117
415,1744
416,1665
417,2006
418,2080
419,1683
420,1559
421,1883
422,2057
423,1745
424,1525
425,1785
426,2082
427,1843
428,0
429,0
430,2075
431,1867
432,1530
433,1673
434,1985
435,1847
436,1515
437,1688
438,2395
439,3053
440,3404
441,4095
442,4095
443,4095
444,3891
445,3009
446,2665
447,2324
448,1773
449,1474
450,1755
451,2061
452,1841
453,0
454,0
455,2092
456,1856
457,1535
458,1680
459,1995
460,1918
461,1591
462,1621
463,2012
464,2047
465,1666
466,1615
467,1994
468,2067
469,1718
470,1598
471,1920
472,2149
473,1860
474,1623
475,1904
476,2186
477,1887
478,1637
479,1858
480,2189
481,2027
482,1724
483,1833
484,2225
485,2151
486,1781
487,1847
488,2233
489,2227
490,1890
491,1863
492,0
493,2398
494,2063
495,1923
496,2293
497,2499
498,2177
499,2018
500,2352
501,2623
502,2370
503,2116
504,2330
505,2677
506,2509
507,2180
508,2317
509,2674
510,2507
511,2096
512,2096
513,2405
514,2322
515,1882
516,1738
517,2061
518,2090
519,1658
520,1491
521,1812
522,1929
523,1558
524,1317
525,1577
526,1849
527,1599
528,1328
529,1509
530,1834
531,1603
532,1293
533,1455
534,1795
535,1727
536,1375
537,1391
538,1775
539,1764
540,0
541,1386
542,1771
543,1840
544,1473
545,1361
546,1710
547,1939
548,1648
549,1426
550,1712
551,1981
552,1693
553,1423
554,1654
555,1951
556,0
557,1441
558,1567
559,1917
560,1831
561,1472
562,1503
563,1900
564,1875
565,1488
566,1466
567,1834
568,1916
569,1579
570,1440
571,0
572,1981
573,1648
574,1413
575,1725
576,1970
577,1666
578,1411
579,1655
580,1969
581,1791
582,1451
583,1585
584,1950
585,1845
586,1489
587,1562
588,1924
589,1871
590,1489
591,1483
592,1853
593,1948
594,1593
595,1451
596,1814
597,2013
598,1664
599,1456
600,1771
601,2007
602,1731
603,1471
604,1693
605,2000
606,1815
607,0
608,1618
609,2005
610,1878
611,1515
612,1601
613,1968
614,1938
615,1571
616,1520
617,1903
618,2010
619,1633
620,1503
621,1895
622,2096
623,1759
624,1603
625,1910
626,2142
627,1863
628,1600
629,1843
630,2202
631,2004
632,1705
633,1856
634,2165
635,1966
636,1607
637,1677
638,0
639,2000
640,1647
641,1592
642,1911
643,2000
644,1649
645,1494
646,1808
647,1981
648,1675
649,1475
650,0
651,2017
652,1728
653,1456
654,1686
655,2014
656,1791
657,1453
658,1535
659,1872
660,1895
661,1854
662,2395
663,0
664,4095
665,4095
666,4095
667,4095
668,3871
669,2618
670,1914
671,1917
672,1989
673,1671
674,1478
675,1809
676,2118
677,1854
678,1535
679,1767
680,2071
681,1804
682,1498
683,1680
684,2019
685,1891
686,1535
687,1613
688,1978
689,1975
690,1635
691,1595
692,1967
693,2093
694,1722
695,1584
696,1947
697,2132
698,1771
699,1589
700,1919
701,2155
702,1863
703,1639
704,1887
705,2195
706,2014
707,1712
708,1847
709,2215
710,2144
711,1792
712,1861
713,2286
714,2269
715,1898
716,1914
717,2326
718,2387
719,2042
720,1967
721,2343
722,2544
723,2246
724,0
725,2374
726,2672
727,2384
728,2139
729,2401
730,2725
731,2450
732,2121
733,2256
734,2544
735,2381
736,1979
737,1948
738,2219
739,2147
740,1716
741,1600
742,0
743,1966
744,1535
745,1369
746,1708
747,1857
748,0
749,1280
750,1607
751,1825
752,1505
753,1253
754,1495
755,1802
756,1591
757,1265
758,1420
759,1802
760,1717
761,1347
762,1399
763,1807
764,1766
765,1377
766,1379
767,1776
768,1813
769,1431
770,1351
771,1713
772,1895
773,0
774,1350
775,1648
776,1923
777,1651
778,0
779,0
780,1936
781,1674
782,1360
783,1535
784,1883
785,1767
786,1420
787,1478
788,1854
789,1857
790,1476
791,1450
792,1841
793,1904
794,1503
795,1407
796,1789
797,1913
798,1523
799,1350
800,1685
801,1927
802,1662
803,1391
804,1622
805,1941
806,1747
807,1414
808,1584
809,1966
810,1808
811,1440
812,1531
813,1913
814,1861
815,1489
816,1473
817,1838
818,1907
819,1557
820,1440
821,1791
822,1974
823,1613
824,1445
825,1776
826,2002
827,1670
828,1436
829,1709
830,1983
831,1763
832,1454
833,1616
834,1964
835,1853
836,1505
837,1589
838,1981
839,1930
840,1519
841,1535
842,1937
843,1964
844,1581
845,1499
846,1863
847,2026
848,1697
849,1493
850,1791
851,2014
852,1787
853,1522
854,0
855,2132
856,1929
857,1601
858,1776
859,2163
860,1994
861,1646
862,1765
863,2167
864,2102
865,1735
866,1726
867,2068
868,2069
869,1687
870,1574
871,1917
872,2105
873,1744
874,1500
875,1802
876,2064
877,1747
878,0
879,1750
880,2032
881,1763
882,1465
883,1664
884,2005
885,1881
886,1535
887,1602
888,1964
889,1942
890,1527
891,1439
892,1839
893,2036
894,1991
895,2446
896,3731
897,4095
898,4095
899,4095
900,0
901,4016
902,2691
903,1808
904,1712
905,1953
906,1763
907,1506
908,1744
909,2108
910,1894
911,1521
912,1604
913,1963
914,1914
915,1535
916,1535
917,1939
918,1993
919,1600
920,1511
921,1894
922,2017
923,1680
924,1523
925,1854
926,2073
927,1791
928,1531
929,1797
930,2129
931,1874
932,1565
933,1778
934,2155
935,1973
936,1642
937,1759
938,2139
939,2112
940,1751
941,1741
942,2135
943,2225
944,0
945,1797
946,2193
947,2325
948,1970
949,1827
950,2192
951,2466
952,2213
953,1967
954,2241
955,2605
956,2370
957,2081
958,2295
959,2669
960,2508
961,2187
962,2281
963,2644
964,2613
965,2218
966,2170
967,2530
968,2531
969,2055
970,1879
971,2199
972,2240
973,1791
974,1554
975,1821
976,1982
977,1634
978,1329
979,1535
980,1846
981,1607
982,1279
983,1463
984,1798
985,1599
986,1259
987,1369
988,1738
989,1711
990,1337
991,1328
992,1739
993,1794
994,1387
995,1312
996,1714
997,1831
998,1471
999,1301
1000,1627
1001,1872
1002,1584
1003,1331
1004,1599
1005,1913
1006,1677
1007,1366
1008,1575
1009,1923
1010,1730
1011,1398
1012,1503
1013,1867
1014,1839
1015,1472
1016,1456
1017,1841
1018,1904
1019,1520
1020,1438
1021,1811
1022,1936
1023,1535
1024,0
1025,1759
1026,1957
1027,1645
1028,1413
1029,1680
1030,1971
1031,1760
1032,1424
1033,1600
1034,1973
1035,1835
1036,1482
1037,1589
1038,1974
1039,1872
1040,0
1041,1535
1042,1938
1043,1958
1044,1594
1045,1514
1046,1872
1047,1998
1048,1641
1049,1459
1050,1795
1051,2061
1052,1761
1053,1486
1054,1752
1055,2095
1056,1865
1057,1535
1058,1727
1059,2097
1060,1906
1061,1630
1062,1675
1063,2067
1064,1953
1065,1595
1066,1629
1067,1997
1068,2059
1069,1689
1070,1595
1071,1968
1072,2131
1073,1773
1074,1602
1075,1936
1076,2165
1077,1817
1078,1595
1079,1879
1080,2160
1081,1921
1082,1630
1083,1809
1084,2143
1085,1995
1086,1648
1087,1750
1088,2143
1089,2083
1090,1694
1091,1735
1092,2157
1093,2166
1094,1795
1095,1776
1096,2163
1097,2293
1098,1951
1099,1773
1100,2097
1101,2359
1102,2081
1103,1824
1104,2112
1105,2421
1106,2141
1107,1772
1108,1939
1109,2312
1110,2115
1111,0
1112,1856
1113,2199
1114,2091
1115,1722
1116,1739
1117,2109
1118,2129
1119,1758
1120,1678
1121,2061
1122,2237
1123,1875
1124,1695
1125,2033
1126,2247
1127,1893
1128,1667
1129,1911
1130,2137
1131,1872
1132,1672
1133,2128
1134,3009
1135,3727
1136,4095
1137,4095
1138,4095
1139,4095
1140,4069
1141,3248
1142,2759
1143,2240
1144,1665
1145,1591
1146,2039
1147,2271
1148,1943
1149,1762
1150,2065
1151,2250
1152,1877
1153,1651
1154,1964
1155,2239
1156,1950
1157,1670
1158,1876
1159,0
1160,2054
1161,1721
1162,1803
1163,2181
1164,2159
1165,1787
1166,1791
1167,2189
1168,2219
1169,1830
1170,1781
1171,2164
1172,2257
1173,1903
1174,1759
1175,2109
1176,2350
1177,2057
1178,1792
1179,2065
1180,2385
1181,2135
1182,1851
1183,2087
1184,2418
1185,2247
1186,1949
1187,2073
1188,2445
1189,2403
1190,2075
1191,2114
1192,2543
1193,2582
1194,2212
1195,2174
1196,2583
1197,2709
1198,2377
1199,2225
1200,2542
1201,2800
1202,2506
1203,2238
1204,2478
1205,2749
1206,2425
1207,2071
1208,2221
1209,2480
1210,2181
1211,1778
1212,1823
1213,2084
1214,1943
1215,1525
1216,1474
1217,0
1218,1808
1219,1392
1220,1287
1221,1647
1222,1739
1223,0
1224,1207
1225,1535
1226,1697
1227,1354
1228,1154
1229,1431
1230,1698
1231,1466
1232,1168
1233,1350
1234,1710
1235,1568
1236,1204
1237,1333
1238,1708
1239,1596
1240,1213
1241,1280
1242,1674
1243,1642
1244,1268
1245,1227
1246,1584
1247,1680
1248,1347
1249,1194
1250,1502
1251,1730
1252,1411
1253,1168
1254,1442
1255,1730
1256,1431
1257,0
1258,1375
1259,1677
1260,1461
1261,1166
1262,1294
1263,1631
1264,1535
1265,1191
1266,1199
1267,1558
1268,1609
1269,1239
1270,1179
1271,1535
1272,1616
1273,1249
1274,1131
1275,1463
1276,1645
1277,1343
1278,1119
1279,0
1280,1677
1281,1435
1282,1139
1283,1329
1284,1661
1285,1428
1286,1106
1287,1261
1288,1616
1289,1520
1290,1188
1291,1206
1292,1535
1293,1583
1294,1213
1295,1137
1296,1520
1297,1630
1298,1253
1299,1130
1300,1486
1301,1662
1302,1311
1303,1127
1304,1415
1305,1645
1306,1394
1307,1136
1308,1322
1309,1655
1310,1516
1311,1168
1312,1277
1313,1648
1314,1520
1315,1168
1316,1237
1317,1587
1318,1583
1319,1261
1320,1216
1321,1535
1322,1648
1323,1309
1324,1168
1325,1487
1326,1694
1327,1389
1328,1173
1329,1436
1330,1714
1331,1463
1332,1212
1333,1445
1334,1754
1335,1513
1336,1227
1337,1399
1338,1741
1339,1655
1340,1354
1341,1405
1342,1738
1343,1741
1344,1408
1345,1377
1346,1747
1347,1869
1348,1511
1349,1360
1350,0
1351,1784
1352,1442
1353,1270
1354,1579
1355,1773
1356,1441
1357,1194
1358,1408
1359,1675
1360,1488
1361,1209
1362,1328
1363,1659
1364,1535
1365,1205
1366,1265
1367,1651
1368,1635
1369,1273
1370,1258
1371,1616
1372,1615
1373,0
1374,1116
1375,1616
1376,2100
1377,2321
1378,2775
1379,3966
1380,4095
1381,4048
1382,3251
1383,2878
1384,2547
1385,1808
1386,1200
1387,1307
1388,1682
1389,1600
1390,1316
1391,1390
1392,1721
1393,1694
1394,1312
1395,1257
1396,1632
1397,1733
1398,1391
1399,1270
1400,1616
1401,1780
1402,1441
1403,1271
1404,1585
1405,1795
1406,1535
1407,1321
1408,1522
1409,1829
1410,1664
1411,1363
1412,1499
1413,1845
1414,1758
1415,1419
1416,1501
1417,1902
1418,1886
1419,1522
1420,1526
1421,1901
1422,1943
1423,1621
1424,1535
1425,1898
1426,2064
1427,1759
1428,1587
1429,1885
1430,2181
1431,1975
1432,1727
1433,1957
1434,2294
1435,2112
1436,1834
1437,2032
1438,2399
1439,2271
1440,1981
1441,2082
1442,2431
1443,2430
1444,2114
1445,2081
1446,0
1447,2477
1448,2107
1449,1930
1450,2199
1451,2333
1452,1948
1453,1659
1454,1855
1455,2016
1456,1654
1457,0
1458,1534
1459,1765
1460,1483
1461,1186
1462,1328
1463,1646
1464,1525
1465,1169
1466,1216
1467,1589
1468,1535
1469,1189
1470,1187
1471,1558
1472,1600
1473,1266
1474,1181
1475,1495
1476,1693
1477,1345
1478,1174
1479,1465
1480,1739
1481,1469
1482,1227
1483,1472
1484,1776
1485,1535
1486,1264
1487,1424
1488,1753
1489,1652
1490,1327
1491,1379
1492,1753
1493,1726
1494,1366
1495,1376
1496,1753
1497,1799
1498,1449
1499,1355
1500,1683
1501,1830
1502,1518
1503,1322
1504,1616
1505,1872
1506,1606
1507,1364
1508,1616
1509,1887
1510,1646
1511,1369
1512,1535
1513,1858
1514,1771
1515,1439
1516,1483
1517,1853
1518,1853
1519,1493
1520,1488
1521,1859
1522,1899
1523,1535
1524,1467
1525,1810
1526,1948
1527,1641
1528,1465
1529,1744
1530,1987
1531,1729
1532,1470
1533,1683
1534,1967
1535,1778
1536,1493
1537,1693
1538,2027
1539,1844
1540,1525
1541,1638
1542,1977
1543,1950
1544,1621
1545,1598
1546,1933
1547,2000
1548,1662
1549,1562
1550,1899
1551,2089
1552,1771
1553,1595
1554,1889
1555,2106
1556,1791
1557,0
1558,1831
1559,2085
1560,1878
1561,1600
1562,1744
1563,2088
1564,1953
1565,1619
1566,1709
1567,2096
1568,2047
1569,1689
1570,1703
1571,2066
1572,2094
1573,1740
1574,1681
1575,2011
1576,2133
1577,1808
1578,1660
1579,1936
1580,0
1581,1941
1582,1718
1583,1969
1584,2278
1585,2047
1586,1776
1587,1958
1588,2303
1589,2147
1590,1869
1591,1986
1592,2301
1593,2224
1594,1870
1595,1828
1596,2140
1597,2151
1598,1776
1599,1685
1600,2015
1601,2159
1602,1838
1603,1650
1604,1936
1605,2149
1606,1859
1607,1647
1608,1919
1609,2197
1610,1949
1611,0
1612,0
1613,2192
1614,2005
1615,1703
1616,1775
1617,2035
1618,1947
1619,1718
1620,1951
1621,2699
1622,3390
1623,3811
1624,4095
1625,4095
1626,4095
1627,3854
1628,2919
1629,2590
1630,2317
1631,1839
1632,1597
1633,1879
1634,2177
1635,1964
1636,1735
1637,0
1638,2238
1639,2009
1640,1699
1641,1843
1642,2208
1643,0
1644,1740
1645,1799
1646,2160
1647,2145
1648,1781
1649,0
1650,2128
1651,2213
1652,1875
1653,1715
1654,2063
1655,2226
1656,1966
1657,1789
1658,2001
1659,2231
1660,1935
1661,1711
1662,1932
1663,2237
1664,2093
1665,1831
1666,0
1667,2353
1668,2245
1669,1932
1670,2007
1671,2363
1672,2370
1673,2057
1674,2002
1675,2339
1676,2411
1677,2106
1678,2029
1679,2411
1680,2640
1681,2353
1682,2203
1683,2480
1684,2727
1685,2454
1686,2224
1687,2425
1688,2768
1689,2642
1690,2341
1691,2443
1692,2805
1693,2643
1694,2259
1695,2266
1696,2519
1697,2431
1698,0
1699,1915
1700,2138
1701,2143
1702,1759
1703,1571
1704,1808
1705,1969
1706,1648
1707,1418
1708,1648
1709,1882
1710,1621
1711,1358
1712,1535
1713,1820
1714,1657
1715,1377
1716,1513
1717,1882
1718,1798
1719,1475
1720,1535
1721,1895
1722,1874
1723,1506
1724,1478
1725,1808
1726,1907
1727,1617
1728,1476
1729,1732
1730,1890
1731,1535
1732,1365
1733,1651
1734,1937
1735,1651
1736,1391
1737,1612
1738,1952
1739,1823
1740,1517
1741,1619
1742,1935
1743,1833
1744,1509
1745,1584
1746,1947
1747,1919
1748,1535
1749,1531
1750,1889
1751,1963
1752,0
1753,0
1754,1819
1755,1981
1756,1702
1757,1517
1758,1745
1759,1950
1760,0
1761,1435
1762,1625
1763,1921
1764,1713
1765,1429
1766,1575
1767,1929
1768,1819
1769,1478
1770,1520
1771,0
1772,1883
1773,1567
1774,1559
1775,1929
1776,2001
1777,1647
1778,0
1779,1871
1780,2026
1781,1707
1782,1524
1783,1776
1784,2000
1785,0
1786,1443
1787,1649
1788,1950
1789,1703
1790,1471
1791,1632
1792,1980
1793,1883
1794,1535
1795,1625
1796,0
1797,1956
1798,1600
1799,1593
1800,1948
1801,2020
1802,1687
1803,0
1804,1887
1805,2030
1806,1765
1807,1586
1808,1808
1809,0
1810,1648
1811,1386
1812,1633
1813,1951
1814,1799
1815,1535
1816,1719
1817,2069
1818,1941
1819,1613
1820,1685
1821,2064
1822,2056
1823,1731
1824,1695
1825,2035
1826,2093
1827,1680
1828,1582
1829,1932
1830,2139
1831,1808
1832,1654
1833,1962
1834,2186
1835,1905
1836,1637
1837,1840
1838,2115
1839,1904
1840,0
1841,1770
1842,2097
1843,1959
1844,1615
1845,1671
1846,1995
1847,1979
1848,1650
1849,1612
1850,1926
1851,2000
1852,1706
1853,1591
1854,1867
1855,1986
1856,1584
1857,1411
1858,1680
1859,1934
1860,1535
1861,1390
1862,1923
1863,2718
1864,3218
1865,3716
1866,4095
1867,0
1868,4095
1869,3411
1870,2763
1871,2512
1872,2081
1873,0
1874,0
1875,1951
1876,2047
1877,1748
1878,1647
1879,1917
1880,0
1881,0
1882,1565
1883,1791
1884,2018
1885,1601
1886,1357
1887,1633
1888,1986
1889,1795
1890,1511
1891,1673
1892,2000
1893,1909
1894,1603
1895,1662
1896,2031
1897,1954
1898,1615
1899,1613
1900,2000
1901,2031
1902,1751
1903,1690
1904,0
1905,2183
1906,1885
1907,1731
1908,2068
1909,2345
1910,0
1911,1824
1912,0
1913,2326
1914,2161
1915,1920
1916,2065
1917,2384
1918,2252
1919,1947
1920,2018
1921,2407
1922,2391
1923,2059
1924,0
1925,2484
1926,2559
1927,2271
1928,2214
1929,2594
1930,2770
1931,2427
1932,2255
1933,2518
1934,2718
1935,2389
1936,2130
1937,2262
1938,2448
1939,2201
1940,1855
1941,1887
1942,0
1943,0
1944,1535
1945,1520
1946,1829
1947,1763
1948,1360
1949,1312
1950,1680
1951,1723
1952,1371
1953,1266
1954,1616
1955,1738
1956,1437
1957,1264
1958,0
1959,1827
1960,1568
1961,1319
1962,1565
1963,1879
1964,1664
1965,1380
1966,1535
1967,1872
1968,1744
1969,1428
1970,1510
1971,1840
1972,1796
1973,1456
1974,1421
1975,1750
1976,1781
1977,1360
1978,1269
1979,1648
1980,1826
1981,1565
1982,0
1983,0
1984,1982
1985,1691
1986,1438
1987,1646
1988,1898
1989,1685
1990,1393
1991,1520
1992,1774
1993,1669
1994,1328
1995,1422
1996,1833
1997,1830
1998,1488
1999,1505
2000,1857
2001,1904
2002,1567
2003,1447
2004,1745
2005,1872
2006,1435
2007,1266
2008,1612
2009,1852
2010,1618
2011,0
2012,0
2013,1990
2014,1767
2015,1470
2016,1563
2017,1904
2018,1713
2019,1363
2020,1440
2021,1818
2022,1787
2023,1474
2024,1483
2025,1888
2026,1965
2027,0
2028,0
2029,1791
2030,1895
2031,1484
2032,1328
2033,0
2034,1901
2035,1650
2036,1345
2037,1686
2038,2006
2039,1791
2040,1517
2041,1647
2042,0
2043,1726
2044,1354
2045,1456
2046,1881
2047,1870
2048,1559
2049,1594
2050,1935
2051,1951
2052,1586
2053,1467
2054,1799
2055,1937
2056,1659
2057,1535
2058,1835
2059,0
2060,1694
2061,1430
2062,1677
2063,1968
2064,1790
2065,1555
2066,1731
2067,2039
2068,1930
2069,1639
2070,1692
2071,2031
2072,1983
2073,1655
2074,1671
2075,2059
2076,2138
2077,0
2078,1745
2079,2057
2080,2192
2081,1822
2082,0
2083,0
2084,2038
2085,1777
2086,1579
2087,1825
2088,2109
2089,1870
2090,1579
2091,1684
2092,1971
2093,1761
2094,1413
2095,1513
2096,1897
2097,1856
2098,0
2099,1584
2100,1967
2101,2012
2102,1666
2103,1577
2104,1856
2105,1945
2106,1579
2107,1421
2108,1857
2109,0
2110,2672
2111,3123
2112,4095
2113,4095
2114,4095
2115,0
2116,3521
2117,2911
2118,2157
2119,1535
2120,0
2121,1901
2122,1840
2123,1472
2124,1498
2125,0
2126,0
2127,1599
2128,1524
2129,1887
2130,2005
2131,0
2132,1535
2133,1839
2134,2046
2135,1808
2136,1579
2137,1747
2138,2030
2139,1760
2140,1462
2141,1669
2142,2064
2143,1949
2144,1646
2145,1743
2146,2096
2147,2083
2148,1765
2149,1710
2150,2015
2151,2045
2152,1648
2153,1584
2154,1994
2155,2170
2156,1874
2157,0
2158,2096
2159,2305
2160,2082
2161,1871
2162,2062
2163,0
2164,2094
2165,1823
2166,2041
2167,2416
2168,2321
2169,2043
2170,2179
2171,2611
2172,2608
2173,2270
2174,2247
2175,2559
2176,2582
2177,2160
2178,2094
2179,2485
2180,2607
2181,2265
2182,2081
2183,2370
2184,2544
2185,2176
2186,1872
2187,2001
2188,2187
2189,1915
2190,1570
2191,1617
2192,1885
2193,1638
2194,1242
2195,1328
2196,1714
2197,1665
2198,1332
2199,1354
2200,1742
2201,1776
2202,0
2203,1328
2204,1631
2205,1776
2206,1457
2207,1289
2208,1569
2209,1767
2210,1343
2211,1122
2212,1435
2213,1767
2214,1584
2215,1331
2216,1535
2217,1891
2218,1752
2219,1425
2220,1498
2221,1829
2222,1755
2223,1373
2224,1360
2225,1740
2226,1725
2227,1388
2228,1347
2229,1756
2230,1931
2231,0
2232,1437
2233,1695
2234,1882
2235,1589
2236,1359
2237,1581
2238,1825
2239,1535
2240,1286
2241,1520
2242,1895
2243,1744
2244,1423
2245,1535
2246,1904
2247,1875
2248,1532
2249,1472
2250,1794
2251,1775
2252,1341
2253,1285
2254,1723
2255,1915
2256,1600
2257,1456
2258,1750
2259,1953
2260,1683
2261,1438
2262,1646
2263,1918
2264,1687
2265,1398
2266,1598
2267,1947
2268,1805
2269,1484
2270,1579
2271,1904
2272,1798
2273,1418
2274,1442
2275,1831
2276,1828
2277,1497
2278,1456
2279,1846
2280,2000
2281,1661
2282,1496
2283,1783
2284,1967
2285,1658
2286,1424
2287,1655
2288,1956
2289,1738
2290,0
2291,1648
2292,2002
2293,1870
2294,1535
2295,1651
2296,1991
2297,1949
2298,1626
2299,1600
2300,1915
2301,1911
2302,1491
2303,1414
2304,1808
2305,1965
2306,1577
2307,1406
2308,1744
2309,1974
2310,1710
2311,1489
2312,1763
2313,2035
2314,1835
2315,1561
2316,1789
2317,2188
2318,2057
2319,1715
2320,1802
2321,2160
2322,2105
2323,0
2324,1771
2325,2115
2326,2183
2327,1845
2328,1719
2329,1985
2330,2064
2331,1600
2332,1437
2333,1813
2334,2022
2335,1739
2336,1510
2337,1761
2338,2032
2339,1824
2340,1516
2341,1711
2342,2064
2343,1909
2344,1574
2345,1680
2346,2070
2347,1993
2348,1631
2349,1625
2350,1959
2351,1990
2352,1643
2353,1504
2354,1831
2355,2093
2356,2091
2357,2432
2358,3556
2359,4095
2360,4095
2361,0
2362,0
2363,3799
2364,2622
2365,1797
2366,1718
2367,2017
2368,1913
2369,1647
2370,1745
2371,2046
2372,1983
2373,1603
2374,1559
2375,1914
2376,1915
2377,1525
2378,1454
2379,1872
2380,2055
2381,1721
2382,1569
2383,1902
2384,0
2385,0
2386,1615
2387,1840
2388,2115
2389,1819
2390,0
2391,1716
2392,2073
2393,1873
2394,1535
2395,1680
2396,2090
2397,2064
2398,1734
2399,1768
2400,2191
2401,2262
2402,0
2403,1802
2404,2128
2405,2266
2406,1888
2407,0
2408,0
2409,2314
2410,2047
2411,1872
2412,2192
2413,2544
2414,2320
2415,2064
2416,2238
2417,2590
2418,2366
2419,2015
2420,2147
2421,2559
2422,2549
2423,0
2424,2311
2425,2710
2426,2762
2427,2383
2428,2235
2429,2494
2430,2523
2431,1955
2432,1722
2433,2038
2434,2245
2435,1917
2436,1619
2437,1829
2438,2085
2439,1776
2440,1433
2441,1556
2442,1846
2443,1603
2444,1226
2445,1319
2446,1715
2447,1673
2448,1328
2449,1380
2450,1798
2451,1839
2452,1456
2453,1331
2454,1657
2455,1808
2456,1436
2457,1273
2458,1628
2459,1890
2460,1588
2461,1348
2462,1570
2463,1823
2464,1475
2465,1166
2466,1422
2467,1883
2468,1776
2469,1441
2470,1531
2471,1875
2472,1815
2473,1439
2474,1397
2475,0
2476,1777
2477,1392
2478,1323
2479,1727
2480,1891
2481,1535
2482,1401
2483,1730
2484,1947
2485,1667
2486,1434
2487,1648
2488,1908
2489,1565
2490,1232
2491,1451
2492,1840
2493,1721
2494,1401
2495,1535
2496,1949
2497,1898
2498,1522
2499,1487
2500,0
2501,1799
2502,1322
2503,1264
2504,1728
2505,1901
2506,1578
2507,1442
2508,1759
2509,1969
2510,1684
2511,1436
2512,1648
2513,1936
2514,1626
2515,1333
2516,0
2517,1962
2518,1811
2519,1486
2520,1594
2521,1949
2522,1909
2523,1535
2524,1489
2525,1839
2526,1808
2527,1444
2528,1408
2529,1831
2530,1968
2531,0
2532,1484
2533,1816
2534,2038
2535,1755
2536,1502
2537,1696
2538,2000
2539,1677
2540,1356
2541,1598
2542,1986
2543,1845
2544,1529
2545,1637
2546,2011
2547,1963
2548,1615
2549,1571
2550,1898
2551,1876
2552,1461
2553,1425
2554,1878
2555,2087
2556,1787
2557,1648
2558,1972
2559,2192
2560,1904
2561,1702
2562,1937
2563,2237
2564,1984
2565,1655
2566,1770
2567,2076
2568,1839
2569,1471
2570,1598
2571,2011
2572,1978
2573,1604
2574,1625
2575,1981
2576,2014
2577,1663
2578,1535
2579,1850
2580,0
2581,1520
2582,1339
2583,1728
2584,1974
2585,1712
2586,0
2587,1778
2588,2067
2589,1775
2590,1436
2591,1660
2592,2180
2593,2387
2594,2610
2595,3467
2596,4095
2597,4095
2598,4053
2599,3638
2600,3344
2601,2638
2602,1808
2603,0
2604,1843
2605,1975
2606,1662
2607,1488
2608,0
2609,2014
2610,1680
2611,1421
2612,1680
2613,2070
2614,1822
2615,1535
2616,1729
2617,2057
2618,1937
2619,1587
2620,1616
2621,1982
2622,1924
2623,0
2624,1611
2625,2037
2626,2103
2627,1719
2628,1616
2629,1946
2630,2100
2631,1667
2632,1488
2633,1886
2634,2154
2635,1872
2636,1662
2637,1941
2638,2252
2639,0
2640,1751
2641,1904
2642,2240
2643,1977
2644,1616
2645,1776
2646,2233
2647,2210
2648,0
2649,1988
2650,2402
2651,2486
2652,2135
2653,0
2654,2382
2655,2499
2656,2071
2657,1943
2658,2349
2659,2603
2660,2191
2661,1937
2662,2326
2663,2613
2664,2353
2665,2059
2666,2255
2667,2590
2668,2352
2669,1914
2670,1920
2671,2197
2672,2098
2673,1680
2674,1598
2675,1872
2676,1786
2677,1269
2678,0
2679,0
2680,1776
2681,1434
2682,1265
2683,1598
2684,1857
2685,1527
2686,1306
2687,1568
2688,1853
2689,0
2690,1355
2691,1473
2692,1808
2693,1480
2694,1104
2695,1271
2696,1770
2697,1751
2698,1393
2699,1421
2700,1829
2701,1867
2702,1485
2703,1425
2704,1792
2705,1935
2706,1613
2707,1430
2708,1698
2709,1920
2710,1509
2711,1258
2712,0
2713,1913
2714,1699
2715,1417
2716,1617
2717,1970
2718,1837
2719,1500
2720,1558
2721,1876
2722,1737
2723,1309
2724,1354
2725,1798
2726,1841
2727,1500
2728,1450
2729,1863
2730,1968
2731,1602
2732,1419
2733,1790
2734,2026
2735,1701
2736,1462
2737,1722
2738,2017
2739,1808
2740,1519
2741,1648
2742,1955
2743,1650
2744,1279
2745,1418
2746,1873
2747,1806
2748,1440
2749,1456
2750,0
2751,0
2752,1586
2753,1510
2754,1911
2755,2025
2756,0
2757,0
2758,1894
2759,2140
2760,1793
2761,1535
2762,1810
2763,2095
2764,1854
2765,1578
2766,1733
2767,2047
2768,1918
2769,1611
2770,1680
2771,2031
2772,1915
2773,1498
2774,1505
2775,1936
2776,1965
2777,1462
2778,1397
2779,1861
2780,2034
2781,1679
2782,1463
2783,1959
2784,2220
2785,1933
2786,1703
2787,2010
2788,2375
2789,2133
2790,1838
2791,2000
2792,2309
2793,2157
2794,1792
2795,1833
2796,2166
2797,2069
2798,1665
2799,1631
2800,2003
2801,2017
2802,1595
2803,1505
2804,1930
2805,2078
2806,1759
2807,1613
2808,1962
2809,2215
2810,1905
2811,1670
2812,1911
2813,2201
2814,1997
2815,1690
2816,1779
2817,2075
2818,1776
2819,1558
2820,2065
2821,3147
2822,4095
2823,4095
2824,4095
2825,4095
2826,4095
2827,3263
2828,2499
2829,2385
2830,2243
2831,1807
2832,1651
2833,2005
2834,2290
2835,1980
2836,1731
2837,2003
2838,2320
2839,2057
2840,0
2841,1904
2842,2266
2843,2128
2844,1794
2845,1899
2846,2282
2847,2215
2848,1830
2849,1847
2850,2258
2851,2304
2852,1920
2853,1856
2854,2224
2855,2374
2856,2017
2857,0
2858,2189
2859,2423
2860,2121
2861,1872
2862,2139
2863,2445
2864,2224
2865,0
2866,2163
2867,2519
2868,2355
2869,2014
2870,2141
2871,2538
2872,2513
2873,2179
2874,2183
2875,2544
2876,2642
2877,2346
2878,2256
2879,2598
2880,2778
2881,2399
2882,2242
2883,2593
2884,0
2885,2455
2886,2256
2887,2601
2888,2911
2889,2677
2890,0
2891,0
2892,2931
2893,2736
2894,2320
2895,2349
2896,2657
2897,2527
2898,0
2899,2031
2900,2367
2901,2352
2902,1902
2903,1728
2904,2118
2905,2237
2906,1840
2907,1669
2908,1981
2909,2226
2910,1882
2911,1606
2912,1866
2913,2153
2914,1918
2915,1595
2916,1753
2917,2064
2918,1921
2919,1597
2920,1677
2921,2031
2922,1893
2923,1535
2924,1570
2925,2000
2926,2047
2927,1709
2928,1606
2929,1968
2930,2032
2931,1685
2932,1527
2933,0
2934,2085
2935,1701
2936,1483
2937,1802
2938,2138
2939,1903
2940,1601
2941,1789
2942,2146
2943,1924
2944,1579
2945,1670
2946,2069
2947,1875
2948,1490
2949,1553
2950,2017
2951,2031
2952,1648
2953,1578
2954,1925
2955,2109
2956,1807
2957,1629
2958,1936
2959,2150
2960,1863
2961,1566
2962,1883
2963,2160
2964,1935
2965,1639
2966,1821
2967,2163
2968,2010
2969,1645
2970,1743
2971,2112
2972,2055
2973,1680
2974,1655
2975,2047
2976,2129
2977,1730
2978,1619
2979,2001
2980,2150
2981,1767
2982,1574
2983,1904
2984,2158
2985,1825
2986,1535
2987,1795
2988,2096
2989,1851
2990,1533
2991,1719
2992,2079
2993,1918
2994,1535
2995,1661
2996,2023
2997,1994
2998,1591
2999,1564
3000,1917
3001,1945
3002,1601
3003,1511
3004,1882
3005,1975
3006,1693
3007,1535
3008,1885
3009,2083
3010,1813
3011,1583
3012,1834
3013,0
3014,1893
3015,1611
3016,1767
3017,2028
3018,1831
3019,1485
3020,1575
3021,0
3022,1826
3023,1456
3024,1430
3025,1805
3026,1819
3027,1457
3028,1385
3029,1759
3030,1889
3031,1535
3032,1387
3033,1718
3034,1947
3035,1614
3036,0
3037,0
3038,1907
3039,1642
3040,1298
3041,1407
3042,1802
3043,1859
3044,1936
3045,2557
3046,3833
3047,4095
3048,4095
3049,3792
3050,3658
3051,2859
3052,1840
3053,1335
3054,1519
3055,1654
3056,1299
3057,0
3058,1527
3059,1791
3060,1392
3061,1139
3062,1403
3063,1686
3064,1338
3065,1053
3066,1301
3067,1689
3068,1574
3069,1251
3070,1351
3071,1743
3072,1701
3073,1347
3074,1375
3075,1756
3076,1783
3077,1399
3078,1344
3079,1727
3080,1866
3081,1503
3082,1348
3083,1649
3084,1881
3085,1603
3086,1395
3087,1628
3088,1898
3089,1685
3090,1426
3091,1600
3092,1911
3093,1808
3094,1530
3095,1613
3096,1925
3097,1923
3098,1645
3099,1661
3100,2000
3101,2079
3102,1776
3103,1715
3104,2039
3105,2176
3106,1873
3107,1747
3108,2033
3109,2277
3110,1900
3111,1687
3112,1947
3113,2307
3114,1949
3115,1638
3116,1801
3117,2150
3118,1872
3119,1451
3120,1468
3121,1808
3122,1639
3123,1182
3124,1137
3125,1495
3126,1495
3127,992
3128,887
3129,1264
3130,1439
3131,1035
3132,870
3133,1187
3134,1453
3135,1104
3136,880
3137,1114
3138,1445
3139,1181
3140,897
3141,1065
3142,0
3143,0
3144,851
3145,970
3146,1378
3147,1319
3148,1003
3149,1051
3150,0
3151,1521
3152,1171
3153,1091
3154,1456
3155,1616
3156,1264
3157,0
3158,1409
3159,1633
3160,1350
3161,1119
3162,1342
3163,1614
3164,1403
3165,1143
3166,1285
3167,1595
3168,1488
3169,1185
3170,1234
3171,1554
3172,1527
3173,1205
3174,1174
3175,1490
3176,1535
3177,1235
3178,1139
3179,1439
3180,1587
3181,1280
3182,1122
3183,1383
3184,1593
3185,1204
3186,980
3187,1246
3188,1599
3189,1319
3190,1023
3191,1220
3192,1584
3193,1457
3194,1148
3195,1238
3196,1606
3197,1535
3198,0
3199,1264
3200,1665
3201,1694
3202,1310
3203,1222
3204,1562
3205,1712
3206,1409
3207,1237
3208,1479
3209,1645
3210,1323
3211,1088
3212,1339
3213,1694
3214,1344
3215,1043
3216,1264
3217,0
3218,1600
3219,1295
3220,1397
3221,1765
3222,1692
3223,0
3224,1351
3225,1701
3226,1740
3227,1373
3228,1279
3229,1607
3230,1725
3231,1250
3232,1097
3233,0
3234,1718
3235,1505
3236,1395
3237,1589
3238,1925
3239,1729
3240,0
3241,1672
3242,2007
3243,1862
3244,1555
3245,1647
3246,1997
3247,1981
3248,1676
3249,1641
3250,1915
3251,1904
3252,1535
3253,1424
3254,1733
3255,1851
3256,1430
3257,1256
3258,1586
3259,0
3260,1488
3261,1279
3262,1560
3263,1824
3264,1627
3265,0
3266,0
3267,1930
3268,1807
3269,1450
3270,1535
3271,1933
3272,1868
3273,1479
3274,1420
3275,1744
3276,1943
3277,1947
3278,0
3279,3451
3280,4095
3281,4095
3282,4031
3283,4062
3284,0
3285,2448
3286,1673
3287,1616
3288,1834
3289,1703
3290,1472
3291,1694
3292,2039
3293,1874
3294,1523
3295,1621
3296,1991
3297,1920
3298,1554
3299,1573
3300,1929
3301,1983
3302,1647
3303,1563
3304,1879
3305,2011
3306,1679
3307,1510
3308,1789
3309,0
3310,1653
3311,1408
3312,1690
3313,2016
3314,1763
3315,1495
3316,1716
3317,2076
3318,1978
3319,1686
3320,1793
3321,2213
3322,2191
3323,1818
3324,1830
3325,2192
3326,2262
3327,1965
3328,1867
3329,2171
3330,2299
3331,1929
3332,1794
3333,2143
3334,2415
3335,2175
3336,1984
3337,2277
3338,2587
3339,2385
3340,0
3341,2382
3342,2751
3343,2650
3344,2333
3345,2384
3346,2713
3347,2643
3348,2277
3349,2218
3350,2523
3351,2497
3352,1987
3353,1831
3354,2160
3355,2240
3356,1898
3357,1671
3358,1935
3359,2113
3360,1763
3361,1489
3362,1758
3363,1955
3364,0
3365,1449
3366,1535
3367,1840
3368,1616
3369,1258
3370,0
3371,1755
3372,1670
3373,1215
3374,1249
3375,1737
3376,0
3377,1407
3378,1313
3379,1715
3380,1874
3381,1497
3382,0
3383,0
3384,1938
3385,1687
3386,1457
3387,1685
3388,1968
3389,1788
3390,1511
3391,1687
3392,2003
3393,1881
3394,1563
3395,1680
3396,2082
3397,2064
3398,1771
3399,1673
3400,2032
3401,2093
3402,0
3403,1621
3404,1936
3405,2098
3406,1795
3407,1627
3408,1859
3409,2087
3410,1833
3411,1589
3412,1773
3413,0
3414,1744
3415,1424
3416,1621
3417,2046
3418,1898
3419,1530
3420,1606
3421,2026
3422,2015
3423,1626
3424,1586
3425,1991
3426,2061
3427,1727
3428,1623
3429,0
3430,2117
3431,1814
3432,1634
3433,1931
3434,2159
3435,1920
3436,0
3437,0
3438,2163
3439,1984
3440,1696
3441,1840
3442,2161
3443,2033
3444,1737
3445,1840
3446,2242
3447,2224
3448,1840
3449,1821
3450,2173
3451,2247
3452,1919
3453,1791
3454,2065
3455,2235
3456,1916
3457,1726
3458,1982
3459,2256
3460,1871
3461,1609
3462,1871
3463,0
3464,2037
3465,1765
3466,1919
3467,2246
3468,2137
3469,1823
3470,1899
3471,2294
3472,2303
3473,1925
3474,1883
3475,2235
3476,2324
3477,1991
3478,1872
3479,2182
3480,2377
3481,2126
3482,1947
3483,2189
3484,0
3485,0
3486,1767
3487,2027
3488,2448
3489,2214
3490,1894
3491,0
3492,2359
3493,2243
3494,1904
3495,1967
3496,2351
3497,2326
3498,0
3499,1883
3500,2257
3501,2352
3502,1953
3503,1789
3504,2147
3505,2321
3506,0
3507,1776
3508,2067
3509,2207
3510,1919
3511,1683
3512,1926
3513,2211
3514,1903
3515,1595
3516,1720
3517,2112
3518,2057
3519,1947
3520,2463
3521,3763
3522,4095
3523,0
3524,4095
3525,4095
3526,4095
3527,3664
3528,2671
3529,2333
3530,2195
3531,0
3532,1737
3533,0
3534,2352
3535,2073
3536,1785
3537,1967
3538,2277
3539,2064
3540,0
3541,1869
3542,2216
3543,2102
3544,1754
3545,1815
3546,2201
3547,2201
3548,1823
3549,1791
3550,2149
3551,2229
3552,1869
3553,0
3554,2084
3555,2262
3556,1951
3557,1773
3558,2030
3559,2278
3560,2039
3561,1791
3562,1964
3563,2261
3564,2127
3565,1847
3566,1935
3567,0
3568,2107
3569,1744
3570,1808
3571,2240
3572,2245
3573,1869
3574,1846
3575,2275
3576,2410
3577,2070
3578,1966
3579,2352
3580,2589
3581,2347
3582,2173
3583,2480
3584,2768
3585,2506
3586,0
3587,2465
3588,2818
3589,2634
3590,2298
3591,2348
3592,2629
3593,2494
3594,2096
3595,2005
3596,2252
3597,2119
3598,1647
3599,1531
3600,1857
3601,1920
3602,1445
3603,1264
3604,1591
3605,1827
3606,1487
3607,0
3608,0
3609,1738
3610,1513
3611,1239
3612,1437
3613,1763
3614,1600
3615,0
3616,1399
3617,1788
3618,1699
3619,1328
3620,1371
3621,1725
3622,1738
3623,1402
3624,1333
3625,1651
3626,1759
3627,1449
3628,1328
3629,1609
3630,1786
3631,0
3632,1306
3633,1526
3634,1789
3635,1488
3636,1223
3637,1396
3638,1763
3639,0
3640,1185
3641,1317
3642,1723
3643,1580
3644,1197
3645,1246
3646,0
3647,1679
3648,1273
3649,1233
3650,1613
3651,1773
3652,1457
3653,1313
3654,1602
3655,0
3656,0
3657,1334
3658,1559
3659,1791
3660,1585
3661,1262
3662,1503
3663,1799
3664,0
3665,1381
3666,1457
3667,1767
3668,1698
3669,1383
3670,1420
3671,1763
3672,1776
3673,1433
3674,1379
3675,1712
3676,1812
3677,1456
3678,0
3679,1664
3680,1870
3681,1530
3682,1312
3683,1600
3684,1891
3685,1625
3686,1328
3687,0
3688,1854
3689,1680
3690,1326
3691,1441
3692,1814
3693,1733
3694,1360
3695,1344
3696,1703
3697,1696
3698,1366
3699,1270
3700,1653
3701,1728
3702,1379
3703,1248
3704,1598
3705,1749
3706,1409
3707,1213
3708,1507
3709,1808
3710,1498
3711,1232
3712,1441
3713,1773
3714,1513
3715,1199
3716,1360
3717,0
3718,0
3719,1344
3720,1360
3721,1755
3722,1765
3723,1411
3724,1360
3725,1773
3726,1917
3727,1610
3728,1437
3729,1744
3730,1918
3731,1647
3732,1452
3733,1754
3734,2064
3735,1823
3736,1515
3737,1654
3738,1919
3739,1724
3740,1404
3741,1502
3742,1870
3743,1714
3744,1331
3745,1345
3746,1759
3747,1741
3748,1309
3749,1254
3750,1653
3751,1766
3752,1324
3753,1197
3754,1578
3755,1856
3756,1490
3757,1286
3758,1535
3759,1858
3760,1661
3761,1360
3762,1503
3763,1936
3764,2116
3765,2324
3766,3109
3767,4095
3768,4095
3769,4095
3770,4045
3771,3743
3772,2818
3773,1826
3774,1396
3775,1675
3776,1786
3777,1518
3778,1392
3779,1706
3780,1905
3781,1523
3782,1267
3783,1523
3784,1867
3785,1638
3786,1389
3787,1562
3788,1890
3789,1763
3790,1461
3791,1587
3792,1953
3793,1904
3794,1518
3795,1535
3796,1900
3797,1947
3798,1588
3799,0
3800,1840
3801,1904
3802,1601
3803,1455
3804,1771
3805,2001
3806,1569
3807,1351
3808,1665
3809,0
3810,1729
3811,1449
3812,1681
3813,2107
3814,1899
3815,1559
3816,1706
3817,0
3818,2159
3819,1846
3820,1873
3821,2256
3822,2355
3823,2062
3824,2015
3825,2383
3826,2519
3827,2194
3828,2074
3829,2413
3830,2688
3831,2401
3832,2133
3833,2369
3834,2551
3835,2274
3836,2002
3837,2159
3838,2450
3839,2112
3840,1687
3841,1729
3842,0
3843,1946
3844,1465
3845,1409
3846,1776
3847,1831
3848,1415
3849,1281
3850,1607
3851,1763
3852,1393
3853,1301
3854,1586
3855,1797
3856,1476
3857,1254
3858,0
3859,1811
3860,1565
3861,1249
3862,1375
3863,1794
3864,1646
3865,0
3866,1397
3867,1791
3868,1744
3869,1363
3870,1373
3871,1764
3872,1833
3873,1450
3874,1331
3875,1698
3876,1849
3877,1531
3878,1327
3879,1613
3880,1764
3881,1463
3882,1245
3883,1499
3884,1787
3885,1605
3886,1293
3887,1430
3888,1808
3889,1573
3890,1206
3891,1327
3892,1770
3893,1712
3894,1326
3895,1318
3896,1717
3897,1856
3898,1553
3899,0
3900,1767
3901,1895
3902,1566
3903,1427
3904,1737
3905,1955
3906,1655
3907,1302
3908,1643
3909,1993
3910,1786
3911,0
3912,1584
3913,1910
3914,1790
3915,1441
3916,1483
3917,1872
3918,1770
3919,1367
3920,1353
3921,1771
3922,1862
3923,1456
3924,1360
3925,1710
3926,1920
3927,0
3928,1489
3929,1771
3930,1984
3931,1733
3932,1510
3933,1734
3934,2017
3935,1797
3936,1508
3937,0
3938,2047
3939,1904
3940,1535
3941,1626
3942,2000
3943,1971
3944,1600
3945,1579
3946,1950
3947,2031
3948,1663
3949,1505
3950,1837
3951,1906
3952,1589
3953,1424
3954,1744
3955,1995
3956,1648
3957,1395
3958,0
3959,2014
3960,1744
3961,1452
3962,1632
3963,2009
3964,1951
3965,1650
3966,1741
3967,2127
3968,2102
3969,0
3970,0
3971,2134
3972,2217
3973,1840
3974,1714
3975,2075
3976,2211
3977,1911
3978,1681
3979,1911
3980,0
3981,1648
3982,1418
3983,1707
3984,2102
3985,1797
3986,1455
3987,1611
3988,1984
3989,1947
3990,1645
3991,1680
3992,2001
3993,1995
3994,0
3995,1666
3996,2004
3997,2077
3998,1699
3999,1605
4000,1971
4001,2122
4002,1735
4003,1418
4004,1712
4005,2142
4006,2123
4007,2454
4008,3569
4009,4095
4010,4095
4011,4095
4012,4063
4013,3578
4014,2615
4015,1792
4016,1632
4017,1981
4018,1998
4019,0
4020,0
4021,2046
4022,2128
4023,1749
4024,1568
4025,1857
4026,1953
4027,1568
4028,1383
4029,1709
4030,0
4031,1599
4032,1371
4033,1661
4034,2039
4035,1938
4036,1680
4037,1827
4038,2179
4039,2058
4040,1663
4041,1694
4042,2064
4043,1875
4044,1488
4045,1525
4046,1982
4047,2160
4048,0
4049,0
4050,0
4051,2288
4052,1957
4053,1759
4054,2072
4055,2292
4056,2039
4057,1778
4058,1979
4059,2347
4060,2128
4061,1839
4062,2014
4063,2431
4064,2386
4065,2107
4066,2218
4067,2615
4068,2623
4069,2241
4070,2176
4071,2544
4072,2579
4073,2240
4074,2135
4075,0
4076,2679
4077,2160
4078,1946
4079,2261
4080,2555
4081,2285
4082,1967
4083,2079
4084,2294
4085,2047
4086,0
4087,1765
4088,2065
4089,1899
4090,1482
4091,1481
4092,1808
4093,1745
4094,1373
4095,1294
4096,1660
4097,1648
4098,1123
4099,1059
4100,1503
4101,1815
4102,1572
4103,1395
4104,1651
4105,1899
4106,1622
4107,1341
4108,1570
4109,1907
4110,1711
4111,0
4112,1456
4113,1845
4114,1776
4115,1399
4116,1387
4117,1763
4118,1649
4119,1159
4120,1170
4121,1657
4122,0
4123,0
4124,1392
4125,1714
4126,1911
4127,1645
4128,1467
4129,1722
4130,1965
4131,1680
4132,1397
4133,1625
4134,1915
4135,1712
4136,1387
4137,1485
4138,1847
4139,1663
4140,1251
4141,1328
4142,1780
4143,1894
4144,1582
4145,1518
4146,1865
4147,1947
4148,1574
4149,0
4150,0
4151,1882
4152,1535
4153,1318
4154,1599
4155,1920
4156,1593
4157,1351
4158,1588
4159,1934
4160,1811
4161,1518
4162,1625
4163,1966
4164,1869
4165,1506
4166,1571
4167,1952
4168,1933
4169,1535
4170,1446
4171,1806
4172,1865
4173,1411
4174,1303
4175,1705
4176,1968
4177,1712
4178,0
4179,1813
4180,2034
4181,1766
4182,1456
4183,1621
4184,1969
4185,1682
4186,1360
4187,1535
4188,1968
4189,1919
4190,1517
4191,1652
4192,2005
4193,1996
4194,1619
4195,0
4196,1909
4197,1919
4198,1531
4199,1393
4200,1759
4201,2059
4202,1850
4203,1621
4204,1911
4205,2224
4206,1966
4207,1659
4208,1844
4209,0
4210,1904
4211,1600
4212,1747
4213,2151
4214,2082
4215,1691
4216,1693
4217,2045
4218,2064
4219,1680
4220,1642
4221,1993
4222,2031
4223,1678
4224,1485
4225,1791
4226,0
4227,0
4228,1423
4229,1723
4230,2026
4231,1820
4232,1583
4233,1767
4234,2095
4235,1921
4236,1535
4237,1591
4238,0
4239,1668
4240,1356
4241,1743
4242,2715
4243,3760
4244,4095
4245,4095
4246,4095
4247,4095
4248,3376
4249,2491
4250,2266
4251,2086
4252,1483
4253,1269
4254,1631
4255,2021
4256,0
4257,0
4258,0
4259,2163
4260,1962
4261,1584
4262,1650
4263,1998
4264,1808
4265,1404
4266,1454
4267,1889
4268,1999
4269,1681
4270,1669
4271,2031
4272,2144
4273,1779
4274,0
4275,0
4276,2112
4277,1799
4278,1582
4279,1839
4280,2156
4281,1926
4282,1684
4283,1887
4284,2243
4285,2087
4286,1739
4287,1861
4288,2206
4289,2062
4290,1715
4291,1762
4292,2174
4293,2311
4294,0
4295,0
4296,2303
4297,2445
4298,2118
4299,1979
4300,2323
4301,2480
4302,2082
4303,1894
4304,2240
4305,2634
4306,2399
4307,2146
4308,2343
4309,2715
4310,2559
4311,2227
4312,2318
4313,0
4314,2334
4315,1853
4316,1890
4317,2301
4318,2362
4319,0
4320,1824
4321,2103
4322,2147
4323,1741
4324,1481
4325,1717
4326,1901
4327,1424
4328,1218
4329,1530
4330,1882
4331,1664
4332,1372
4333,1571
4334,1878
4335,1695
4336,1341
4337,1421
4338,1808
4339,1648
4340,1218
4341,1299
4342,1777
4343,1875
4344,1520
4345,1456
4346,1814
4347,1890
4348,1535
4349,1355
4350,1663
4351,1929
4352,1642
4353,1424
4354,1677
4355,2014
4356,1770
4357,0
4358,1613
4359,1905
4360,1650
4361,1306
4362,1424
4363,1854
4364,1904
4365,1601
4366,1615
4367,1950
4368,1959
4369,1557
4370,1461
4371,1833
4372,1813
4373,1353
4374,1232
4375,1647
4376,1949
4377,1712
4378,0
4379,0
4380,2044
4381,1779
4382,1458
4383,1635
4384,1939
4385,1758
4386,1424
4387,1511
4388,1907
4389,1779
4390,1329
4391,1360
4392,1808
4393,1949
4394,0
4395,1603
4396,1926
4397,2059
4398,1681
4399,1475
4400,1783
4401,1925
4402,1497
4403,1296
4404,1616
4405,0
4406,1850
4407,1595
4408,1766
4409,2079
4410,1931
4411,0
4412,1584
4413,1948
4414,1819
4415,1409
4416,1471
4417,1905
4418,2027
4419,1711
4420,1630
4421,1968
4422,2100
4423,1737
4424,1535
4425,0
4426,2043
4427,1780
4428,1520
4429,1741
4430,2064
4431,1737
4432,1438
4433,1662
4434,2066
4435,1998
4436,1712
4437,1832
4438,2192
4439,2129
4440,1741
4441,1713
4442,2106
4443,2150
4444,1809
4445,1691
4446,1998
4447,2142
4448,1680
4449,1498
4450,1840
4451,2114
4452,1829
4453,1583
4454,1794
4455,2075
4456,1842
4457,1564
4458,1744
4459,2126
4460,1979
4461,1600
4462,1651
4463,1984
4464,1862
4465,1477
4466,1471
4467,1873
4468,1970
4469,1584
4470,1459
4471,1802
4472,2095
4473,2073
4474,0
4475,0
4476,4095
4477,4095
4478,4095
4479,4095
4480,3984
4481,2705
4482,1801
4483,1616
4484,1919
4485,1781
4486,1459
4487,1579
4488,1985
4489,2022
4490,1709
4491,1679
4492,1990
4493,2023
4494,1634
4495,1535
4496,1939
4497,2085
4498,1735
4499,1501
4500,1792
4501,1997
4502,1689
4503,1454
4504,1712
4505,2068
4506,1783
4507,1472
4508,1648
4509,0
4510,2021
4511,1725
4512,1778
4513,2119
4514,2106
4515,1756
4516,1773
4517,2170
4518,2240
4519,1863
4520,0
4521,2135
4522,2299
4523,1978
4524,1774
4525,2069
4526,2311
4527,1945
4528,1716
4529,2006
4530,2417
4531,2256
4532,2006
4533,2176
4534,2548
4535,2455
4536,2150
4537,2257
4538,2651
4539,2624
4540,2256
4541,2225
4542,2614
4543,2544
4544,2064
4545,1962
4546,2352
4547,2559
4548,2228
4549,1995
4550,2164
4551,2307
4552,1954
4553,1646
4554,1813
4555,2095
4556,1814
4557,0
4558,0
4559,1875
4560,1743
4561,1345
4562,1360
4563,1727
4564,1601
4565,1183
4566,1179
4567,1607
4568,1776
4569,1459
4570,1375
4571,1697
4572,1841
4573,1483
4574,1323
4575,1650
4576,1895
4577,1617
4578,1309
4579,1497
4580,1839
4581,1497
4582,1174
4583,1381
4584,1819
4585,1798
4586,0
4587,1535
4588,1897
4589,1857
4590,1455
4591,1431
4592,1818
4593,1844
4594,1486
4595,1347
4596,1698
4597,1872
4598,1488
4599,1275
4600,1571
4601,1869
4602,1513
4603,1294
4604,1559
4605,1895
4606,1739
4607,1456
4608,1619
4609,1971
4610,1836
4611,0
4612,1494
4613,1875
4614,1842
4615,1467
4616,1426
4617,1807
4618,1854
4619,1489
4620,1365
4621,1712
4622,1873
4623,1490
4624,1284
4625,1614
4626,1941
4627,1598
4628,1322
4629,1535
4630,1907
4631,1799
4632,1521
4633,1654
4634,1993
4635,1856
4636,1489
4637,1578
4638,0
4639,1904
4640,1528
4641,1462
4642,1846
4643,1882
4644,1456
4645,1349
4646,1730
4647,1969
4648,1652
4649,1469
4650,1740
4651,2015
4652,1805
4653,1565
4654,1754
4655,2061
4656,1840
4657,1511
4658,1679
4659,2064
4660,1950
4661,0
4662,1618
4663,1989
4664,1963
4665,1581
4666,1505
4667,1875
4668,1901
4669,1488
4670,1393
4671,1808
4672,2084
4673,1649
4674,1520
4675,1833
4676,2140
4677,1925
4678,1714
4679,1927
4680,2259
4681,2082
4682,1738
4683,1847
4684,2156
4685,2032
4686,1648
4687,1646
4688,0
4689,1914
4690,1493
4691,1443
4692,1843
4693,1927
4694,1452
4695,1333
4696,1733
4697,1997
4698,1749
4699,0
4700,1835
4701,2075
4702,1775
4703,1506
4704,1753
4705,2101
4706,1867
4707,1449
4708,1562
4709,2011
4710,0
4711,2315
4712,2987
4713,4095
4714,4095
4715,4095
4716,3952
4717,3819
4718,0
4719,1758
4720,1301
4721,1647
4722,1972
4723,1710
4724,1535
4725,1810
4726,2079
4727,1856
4728,1599
4729,1760
4730,2043
4731,1866
4732,1575
4733,1711
4734,2053
4735,1951
4736,0
4737,1648
4738,2031
4739,2039
4740,1663
4741,1638
4742,2021
4743,2160
4744,1783
4745,1600
4746,0
4747,2108
4748,1811
4749,1600
4750,1875
4751,2119
4752,1861
4753,1601
4754,1816
4755,0
4756,1842
4757,1490
4758,1687
4759,2176
4760,2077
4761,1675
4762,1728
4763,2183
4764,2327
4765,2032
4766,0
4767,2347
4768,2464
4769,2144
4770,2066
4771,2452
4772,2715
4773,2384
4774,2128
4775,2416
4776,2673
4777,2414
4778,2146
4779,2349
4780,2670
4781,2289
4782,1936
4783,2099
4784,0
4785,0
4786,1670
4787,1696
4788,2124
4789,2142
4790,1699
4791,1571
4792,1871
4793,1963
4794,1625
4795,0
4796,1699
4797,1859
4798,1559
4799,1350
4800,1639
4801,0
4802,1600
4803,0
4804,0
4805,1808
4806,1675
4807,1362
4808,1458
4809,1798
4810,1725
4811,0
4812,1424
4813,1814
4814,1834
4815,1434
4816,1387
4817,1781
4818,1915
4819,1526
4820,0
4821,1691
4822,1903
4823,1603
4824,1350
4825,1610
4826,1842
4827,1535
4828,1245
4829,1445
4830,0
4831,1525
4832,1181
4833,1330
4834,1791
4835,1653
4836,1226
4837,1285
4838,1743
4839,1876
4840,1561
4841,1475
4842,1787
4843,1888
4844,1554
4845,1435
4846,1766
4847,1991
4848,1659
4849,1389
4850,1662
4851,1963
4852,1713
4853,1388
4854,1590
4855,1909
4856,1742
4857,1380
4858,1462
4859,1841
4860,1714
4861,1344
4862,1371
4863,0
4864,1813
4865,1357
4866,1301
4867,1738
4868,1936
4869,1645
4870,1508
4871,1808
4872,2003
4873,1680
4874,1459
4875,1729
4876,2046
4877,1801
4878,1467
4879,1639
4880,1958
4881,1805
4882,1449
4883,1511
4884,1903
4885,1749
4886,1324
4887,1373
4888,1825
4889,1926
4890,1567
4891,1490
4892,1842
4893,1993
4894,1686
4895,1557
4896,1863
4897,2075
4898,1745
4899,0
4900,0
4901,2064
4902,1813
4903,1486
4904,1663
4905,1983
4906,1824
4907,1479
4908,1535
4909,1927
4910,1788
4911,1408
4912,1463
4913,1939
4914,1974
4915,1535
4916,1495
4917,1913
4918,2086
4919,1585
4920,1474
4921,1895
4922,2236
4923,1851
4924,1582
4925,1811
4926,2111
4927,1930
4928,1675
4929,1794
4930,2102
4931,1936
4932,1600
4933,1712
4934,2095
4935,2007
4936,1607
4937,1595
4938,1977
4939,1984
4940,1615
4941,1494
4942,0
4943,1966
4944,1581
4945,1399
4946,1739
4947,1986
4948,1504
4949,1232
4950,1599
4951,2163
4952,2377
4953,2694
4954,0
4955,4095
4956,4095
4957,4095
4958,4095
4959,3854
4960,2710
4961,1747
4962,1471
4963,1869
4964,1950
4965,1643
4966,1563
4967,1938
4968,2010
4969,1612
4970,1421
4971,1750
4972,0
4973,1563
4974,1327
4975,1634
4976,2039
4977,1664
4978,1328
4979,1568
4980,2003
4981,1883
4982,1555
4983,1650
4984,2043
4985,2057
4986,1729
4987,1717
4988,2083
4989,2141
4990,1782
4991,1733
4992,2127
4993,2274
4994,1902
4995,1716
4996,2062
4997,2295
4998,1999
4999,1738
5000,2000
5001,2336
5002,2128
5003,0
5004,1989
5005,2325
5006,2167
5007,1843
5008,1963
5009,2407
5010,2251
5011,1809
5012,1889
5013,2401
5014,2545
5015,2134
5016,2055
5017,2463
5018,2717
5019,2410
5020,2238
5021,2512
5022,2755
5023,2465
5024,2208
5025,2368
5026,2603
5027,2334
5028,1968
5029,0
5030,2320
5031,2095
5032,1659
5033,1703
5034,2032
5035,1927
5036,1481
5037,1446
5038,1826
5039,1878
5040,1457
5041,1333
5042,1696
5043,1840
5044,1485
5045,1238
5046,1531
5047,0
5048,1358
5049,1123
5050,1415
5051,1810
5052,1456
5053,1123
5054,1334
5055,1773
5056,1735
5057,1419
5058,0
5059,1881
5060,1833
5061,1447
5062,1456
5063,1856
5064,1918
5065,1514
5066,1340
5067,1742
5068,1808
5069,1467
5070,1288
5071,1611
5072,1887
5073,1441
5074,1181
5075,1479
5076,1868
5077,1748
5078,1456
5079,1589
5080,1904
5081,1775
5082,0
5083,0
5084,1932
5085,1890
5086,1473
5087,1435
5088,1817
5089,1868
5090,1488
5091,1350
5092,1712
5093,1826
5094,1394
5095,1216
5096,1572
5097,1898
5098,1567
5099,1309
5100,1535
5101,1895
5102,1757
5103,0
5104,1616
5105,1952
5106,1808
5107,1456
5108,1562
5109,1987
5110,1927
5111,1513
5112,1482
5113,1870
5114,1933
5115,1569
5116,1435
5117,1782
5118,1926
5119,1584
5120,1367
5121,1680
5122,1936
5123,1467
5124,1205
5125,1514
5126,1949
5127,1774
5128,1463
5129,1600
5130,1943
5131,1875
5132,1535
5133,1632
5134,1993
5135,1947
5136,0
5137,1562
5138,1955
5139,2026
5140,1639
5141,1484
5142,1839
5143,1962
5144,1623
5145,1409
5146,0
5147,0
5148,1520
5149,1265
5150,1603
5151,2054
5152,1901
5153,1607
5154,1722
5155,2067
5156,2009
5157,0
5158,1773
5159,2163
5160,2177
5161,1801
5162,1757
5163,2109
5164,2160
5165,1744
5166,1594
5167,1936
5168,2075
5169,1695
5170,1449
5171,1739
5172,2011
5173,1667
5174,1373
5175,1597
5176,1979
5177,1621
5178,1329
5179,1491
5180,0
5181,1931
5182,1623
5183,1631
5184,1949
5185,1914
5186,1567
5187,1488
5188,1997
5189,2374
5190,2463
5191,0
5192,4095
5193,4095
5194,4095
5195,3997
5196,3614
5197,2885
5198,2011
5199,1429
5200,1584
5201,0
5202,1712
5203,1392
5204,1566
5205,1999
5206,1840
5207,1421
5208,1472
5209,1899
5210,1968
5211,1627
5212,1588
5213,1934
5214,2013
5215,0
5216,1595
5217,1964
5218,2143
5219,1786
5220,1524
5221,1812
5222,2063
5223,1766
5224,1478
5225,1709
5226,2109
5227,1808
5228,1455
5229,1636
5230,2073
5231,2047
5232,1728
5233,1766
5234,2145
5235,2163
5236,1810
5237,1810
5238,2219
5239,2320
5240,1931
5241,1806
5242,2176
5243,2326
5244,2027
5245,1821
5246,2128
5247,2429
5248,1943
5249,1696
5250,2039
5251,2512
5252,2438
5253,2177
5254,2308
5255,2688
5256,2559
5257,0
5258,2288
5259,2675
5260,2592
5261,2176
5262,2071
5263,2402
5264,2359
5265,1769
5266,1599
5267,1975
5268,2214
5269,1827
5270,1582
5271,1790
5272,2006
5273,1705
5274,1401
5275,1616
5276,1954
5277,1723
5278,1335
5279,0
5280,1809
5281,1718
5282,1331
5283,1337
5284,1691
5285,1632
5286,1242
5287,0
5288,1675
5289,1755
5290,1297
5291,1168
5292,1583
5293,1854
5294,1414
5295,1206
5296,1534
5297,1894
5298,0
5299,1372
5300,1574
5301,1901
5302,1774
5303,1472
5304,1584
5305,1933
5306,1844
5307,1494
5308,1557
5309,1940
5310,1929
5311,1517
5312,1467
5313,1870
5314,1995
5315,1600
5316,0
5317,0
5318,1987
5319,1654
5320,1414
5321,1709
5322,1997
5323,1727
5324,1386
5325,1599
5326,1911
5327,1724
5328,1385
5329,1526
5330,1895
5331,1797
5332,1431
5333,1456
5334,1840
5335,1807
5336,1443
5337,1394
5338,1799
5339,1857
5340,1497
5341,1348
5342,1710
5343,0
5344,1475
5345,1264
5346,1597
5347,1962
5348,1535
5349,1234
5350,1499
5351,1955
5352,1758
5353,1409
5354,0
5355,1941
5356,1885
5357,1520
5358,1523
5359,1920
5360,1920
5361,0
5362,1427
5363,1842
5364,2010
5365,1683
5366,1535
5367,1843
5368,2063
5369,1754
5370,1556
5371,1808
5372,2082
5373,1840
5374,1584
5375,1785
5376,2126
5377,1926
5378,1565
5379,1707
5380,2121
5381,2045
5382,1631
5383,1654
5384,2081
5385,2129
5386,1744
5387,1669
5388,2046
5389,2130
5390,1789
5391,0
5392,0
5393,2273
5394,1968
5395,1703
5396,1937
5397,2162
5398,1873
5399,0
5400,0
5401,2058
5402,1813
5403,1445
5404,1569
5405,1968
5406,1846
5407,1469
5408,1498
5409,0
5410,1933
5411,1498
5412,1424
5413,1841
5414,2009
5415,1579
5416,1398
5417,1763
5418,2047
5419,1659
5420,1362
5421,1649
5422,2155
5423,2166
5424,2402
5425,3357
5426,4095
5427,4095
5428,3941
5429,3607
5430,3366
5431,2503
5432,1651
5433,1482
5434,1887
5435,1953
5436,1535
5437,1466
5438,1875
5439,2045
5440,1613
5441,1449
5442,1810
5443,2093
5444,0
5445,1516
5446,1781
5447,2105
5448,1883
5449,1607
5450,1773
5451,2119
5452,2000
5453,1697
5454,1790
5455,2165
5456,2092
5457,1711
5458,1767
5459,2181
5460,2207
5461,1802
5462,1725
5463,2114
5464,2252
5465,1873
5466,1684
5467,2017
5468,2199
5469,1903
5470,1666
5471,1943
5472,2263
5473,1903
5474,1628
5475,1879
5476,2352
5477,2112
5478,1760
5479,1891
5480,2377
5481,2381
5482,2032
5483,2065
5484,2480
5485,2589
5486,2271
5487,2214
5488,2559
5489,2725
5490,2370
5491,2237
5492,2559
5493,2803
5494,2448
5495,0
5496,2411
5497,2678
5498,2333
5499,1938
5500,2067
5501,2336
5502,2096
5503,1668
5504,1723
5505,2003
5506,1851
5507,1456
5508,1431
5509,1800
5510,1669
5511,1111
5512,1099
5513,1596
5514,1875
5515,0
5516,1434
5517,1734
5518,1936
5519,1601
5520,1331
5521,1603
5522,1870
5523,1527
5524,1219
5525,1439
5526,1887
5527,1675
5528,1296
5529,1411
5530,1840
5531,1862
5532,1535
5533,1535
5534,1895
5535,1920
5536,0
5537,1505
5538,1886
5539,2029
5540,1639
5541,1437
5542,1739
5543,2000
5544,1689
5545,1398
5546,1645
5547,1920
5548,1680
5549,1379
5550,1535
5551,1920
5552,1683
5553,1303
5554,1402
5555,1846
5556,1787
5557,1361
5558,1392
5559,1826
5560,1935
5561,1586
5562,1482
5563,1831
5564,1973
5565,0
5566,1469
5567,0
5568,2043
5569,1712
5570,1437
5571,1711
5572,2005
5573,1776
5574,1430
5575,1616
5576,1965
5577,1814
5578,1449
5579,1535
5580,1899
5581,1843
5582,1477
5583,1472
5584,1872
5585,1883
5586,1520
5587,1415
5588,1798
5589,1910
5590,1422
5591,1245
5592,1648
5593,1974
5594,1629
5595,1392
5596,1677
5597,2019
5598,1824
5599,1534
5600,1715
5601,2085
5602,1906
5603,1529
5604,1646
5605,2034
5606,1994
5607,1579
5608,1534
5609,1923
5610,0
5611,1511
5612,1408
5613,1806
5614,2030
5615,1657
5616,1484
5617,1837
5618,2136
5619,1770
5620,1535
5621,1825
5622,2188
5623,2021
5624,1756
5625,1904
5626,2222
5627,2033
5628,1660
5629,1728
5630,2115
5631,2045
5632,1638
5633,1623
5634,2018
5635,2074
5636,1647
5637,0
5638,1911
5639,2057
5640,1692
5641,1482
5642,1803
5643,2055
5644,1744
5645,1454
5646,0
5647,2032
5648,1790
5649,1418
5650,1517
5651,1859
5652,1762
5653,1664
5654,2203
5655,0
5656,4095
5657,4095
5658,4095
5659,4095
5660,3776
5661,2522
5662,1882
5663,1909
5664,1983
5665,0
5666,1587
5667,1901
5668,2166
5669,1857
5670,1582
5671,1823
5672,2135
5673,1871
5674,0
5675,1680
5676,2032
5677,1904
5678,1535
5679,1615
5680,1995
5681,1961
5682,1591
5683,0
5684,1962
5685,1984
5686,1600
5687,1490
5688,1893
5689,2064
5690,1603
5691,0
5692,1832
5693,2190
5694,1767
5695,1487
5696,1787
5697,2208
5698,1955
5699,1647
5700,1826
5701,2247
5702,2223
5703,1914
5704,1983
5705,2365
5706,2346
5707,1981
5708,2010
5709,2439
5710,2542
5711,0
5712,2101
5713,2497
5714,2693
5715,2333
5716,2114
5717,2451
5718,2722
5719,2446
5720,0
5721,0
5722,2729
5723,2461
5724,2151
5725,2306
5726,2677
5727,2386
5728,1955
5729,1975
5730,2354
5731,2206
5732,1687
5733,1615
5734,1993
5735,2078
5736,1645
5737,1389
5738,1806
5739,1990
5740,0
5741,1488
5742,1751
5743,1984
5744,1692
5745,1431
5746,1663
5747,1989
5748,1778
5749,1469
5750,0
5751,2000
5752,1866
5753,1497
5754,1598
5755,2006
5756,1973
5757,0
5758,0
5759,2000
5760,2096
5761,1678
5762,1555
5763,1953
5764,2170
5765,1794
5766,0
5767,0
5768,2141
5769,1878
5770,1586
5771,1814
5772,2142
5773,1945
5774,0
5775,1759
5776,0
5777,2029
5778,1662
5779,1723
5780,2123
5781,2105
5782,1722
5783,1664
5784,0
5785,2064
5786,1679
5787,1583
5788,1978
5789,2155
5790,1680
5791,1482
5792,1875
5793,0
5794,0
5795,1648
5796,1884
5797,2276
5798,2112
5799,1810
5800,1937
5801,2305
5802,2249
5803,1913
5804,1955
5805,2335
5806,2331
5807,1964
5808,1935
5809,2333
5810,2435
5811,2038
5812,0
5813,2259
5814,2441
5815,2133
5816,1895
5817,2187
5818,2473
5819,2247
5820,1945
5821,2147
5822,2471
5823,2246
5824,1917
5825,2055
5826,2476
5827,2308
5828,1927
5829,1994
5830,2431
5831,2521
5832,2192
5833,2149
5834,2495
5835,2559
5836,0
5837,2095
5838,2455
5839,2686
5840,2320
5841,2083
5842,2384
5843,2703
5844,2416
5845,2098
5846,0
5847,2672
5848,2511
5849,2139
5850,2242
5851,2618
5852,2539
5853,2192
5854,2239
5855,2651
5856,2672
5857,2305
5858,2234
5859,2624
5860,2711
5861,2299
5862,2190
5863,2597
5864,2901
5865,2543
5866,2304
5867,2543
5868,2819
5869,2599
5870,2310
5871,2480
5872,2807
5873,2610
5874,0
5875,0
5876,2784
5877,2679
5878,2299
5879,2352
5880,2765
5881,2774
5882,2358
5883,2318
5884,2731
5885,2867
5886,2452
5887,2289
5888,2640
5889,2855
5890,2463
5891,0
5892,0
5893,3111
5894,3342
5895,3856
5896,4095
5897,4095
5898,4095
5899,0
5900,4095
5901,4095
5902,4095
5903,3405
5904,2736
5905,2687
5906,2559
5907,2262
5908,2256
5909,2603
5910,2691
5911,2299
5912,2105
5913,2370
5914,2544
5915,2110
5916,1904
5917,2203
5918,0
5919,2166
5920,1877
5921,2121
5922,2482
5923,2261
5924,1942
5925,2096
5926,2464
5927,2379
5928,2031
5929,2074
5930,2466
5931,2493
5932,2115
5933,2068
5934,2445
5935,2559
5936,2199
5937,2071
5938,2365
5939,2544
5940,2257
5941,2047
5942,2258
5943,0
5944,2235
5945,1967
5946,2137
5947,2482
5948,2160
5949,1834
5950,2020
5951,2450
5952,2368
5953,2064
5954,2125
5955,2559
5956,2602
5957,2240
5958,2209
5959,2597
5960,2704
5961,2353
5962,2199
5963,2453
5964,2595
5965,2174
5966,1936
5967,2167
5968,2384
5969,1959
5970,1609
5971,1765
5972,2010
5973,0
5974,1422
5975,1507
5976,1837
5977,1703
5978,0
5979,1282
5980,1575
5981,1476
5982,1068
5983,1014
5984,1411
5985,1477
5986,1150
5987,1040
5988,0
5989,1647
5990,1311
5991,1104
5992,1353
5993,1591
5994,1362
5995,1103
5996,1226
5997,1514
5998,1234
5999,918
6000,1072
6001,1445
6002,1361
6003,1057
6004,1114
6005,1501
6006,1490
6007,1104
6008,1074
6009,1424
6010,1517
6011,1184
6012,1018
6013,1265
6014,0
6015,1040
6016,848
6017,1133
6018,1388
6019,1006
6020,762
6021,1039
6022,1347
6023,1116
6024,827
6025,1002
6026,1392
6027,1321
6028,981
6029,1040
6030,1424
6031,1413
6032,1043
6033,988
6034,1311
6035,1360
6036,976
6037,848
6038,1153
6039,1325
6040,981
6041,0
6042,1139
6043,1449
6044,1185
6045,926
6046,0
6047,1422
6048,1259
6049,955
6050,1022
6051,1349
6052,1140
6053,752
6054,836
6055,1265
6056,1281
6057,957
6058,950
6059,1334
6060,1430
6061,1087
6062,925
6063,1190
6064,1361
6065,978
6066,783
6067,1086
6068,1335
6069,1127
6070,0
6071,0
6072,1505
6073,1302
6074,976
6075,1061
6076,1387
6077,1264
6078,897
6079,923
6080,1328
6081,1368
6082,1059
6083,1037
6084,1404
6085,1502
6086,1166
6087,1008
6088,1271
6089,1426
6090,999
6091,816
6092,1178
6093,1478
6094,1266
6095,0
6096,1241
6097,1535
6098,1406
6099,1123
6100,1211
6101,1557
6102,1397
6103,1039
6104,1094
6105,0
6106,1510
6107,1228
6108,1262
6109,1671
6110,1783
6111,1415
6112,1195
6113,1403
6114,1535
6115,1226
6116,1038
6117,1353
6118,1648
6119,1370
6120,1117
6121,1265
6122,1534
6123,1241
6124,927
6125,1067
6126,1450
6127,1370
6128,0
6129,1145
6130,1535
6131,1535
6132,1181
6133,1113
6134,1379
6135,1375
6136,895
6137,0
6138,0
6139,2128
6140,2433
6141,2913
6142,4036
6143,4095
6144,3734
6145,2832
6146,2381
6147,2033
6148,1417
6149,959
6150,1131
6151,1584
6152,1566
6153,1251
6154,1229
6155,0
6156,1385
6157,924
6158,929
6159,1380
6160,1535
6161,1231
6162,1120
6163,1438
6164,1616
6165,1340
6166,1129
6167,1314
6168,1535
6169,1242
6170,0
6171,0
6172,1664
6173,1502
6174,1203
6175,0
6176,1650
6177,1535
6178,1217
6179,1225
6180,0
6181,1590
6182,1264
6183,1248
6184,1653
6185,1793
6186,1467
6187,1360
6188,1657
6189,1825
6190,1421
6191,1233
6192,1562
6193,0
6194,1646
6195,1456
6196,1749
6197,2114
6198,1958
6199,1680
6200,1769
6201,2097
6202,1904
6203,1525
6204,1661
6205,2133
6206,2214
6207,1884
6208,1863
6209,2201
6210,2262
6211,1908
6212,1698
6213,1878
6214,1925
6215,1471
6216,1239
6217,1533
6218,1783
6219,1463
6220,1150
6221,1263
6222,1487
6223,1232
6224,922
6225,967
6226,1281
6227,1149
6228,0
6229,939
6230,1347
6231,1360
6232,1013
6233,942
6234,1232
6235,1299
6236,873
6237,0
6238,1171
6239,1428
6240,1143
6241,960
6242,1250
6243,1489
6244,1214
6245,947
6246,1109
6247,1418
6248,1267
6249,996
6250,1177
6251,1535
6252,1472
6253,1152
6254,1133
6255,1454
6256,1433
6257,1095
6258,1077
6259,1488
6260,1615
6261,1262
6262,1133
6263,1407
6264,1553
6265,1209
6266,1007
6267,1289
6268,1535
6269,1343
6270,1121
6271,1373
6272,1712
6273,1554
6274,1243
6275,1283
6276,1587
6277,1466
6278,1151
6279,1244
6280,1658
6281,1698
6282,1361
6283,1245
6284,1535
6285,1621
6286,1327
6287,1235
6288,1580
6289,1762
6290,1391
6291,1159
6292,1434
6293,1735
6294,1520
6295,1290
6296,1487
6297,1786
6298,1454
6299,1103
6300,1313
6301,1772
6302,1739
6303,1407
6304,1414
6305,1730
6306,1712
6307,1330
6308,0
6309,1757
6310,1906
6311,1586
6312,1439
6313,1694
6314,1854
6315,1505
6316,0
6317,1670
6318,1974
6319,1762
6320,1481
6321,1609
6322,1867
6323,1703
6324,0
6325,1600
6326,1962
6327,1908
6328,0
6329,1554
6330,1873
6331,1861
6332,0
6333,1568
6334,1928
6335,2031
6336,1679
6337,1500
6338,1798
6339,1989
6340,1716
6341,1554
6342,1802
6343,2059
6344,1732
6345,1456
6346,1711
6347,2134
6348,2011
6349,1733
6350,1815
6351,0
6352,2019
6353,1651
6354,1743
6355,2207
6356,2290
6357,1932
6358,0
6359,2042
6360,2062
6361,1725
6362,0
6363,1987
6364,2187
6365,1873
6366,1630
6367,1834
6368,2087
6369,1789
6370,0
6371,0
6372,2125
6373,1986
6374,1685
6375,1721
6376,2021
6377,1921
6378,0
6379,1681
6380,2081
6381,2090
6382,0
6383,1553
6384,1922
6385,2256
6386,0
6387,0
6388,4095
6389,4095
6390,0
6391,4095
6392,4095
6393,3623
6394,2432
6395,1689
6396,1719
6397,2064
6398,1874
6399,1535
6400,1694
6401,2123
6402,2064
6403,1717
6404,1726
6405,2047
6406,2019
6407,1623
6408,0
6409,1996
6410,2160
6411,1866
6412,1685
6413,1939
6414,2117
6415,1839
6416,1677
6417,1941
6418,2227
6419,1843
6420,1535
6421,1803
6422,2235
6423,2127
6424,1846
6425,1917
6426,0
6427,2164
6428,1813
6429,1872
6430,2271
6431,2319
6432,2000
6433,1906
6434,2240
6435,2356
6436,2047
6437,1968
6438,2281
6439,2490
6440,2093
6441,0
6442,0
6443,2651
6444,2464
6445,2219
6446,2363
6447,2671
6448,2527
6449,2261
6450,2415
6451,2792
6452,2672
6453,2274
6454,2329
6455,2771
6456,2851
6457,2463
6458,2338
6459,2592
6460,2621
6461,2160
6462,1950
6463,2256
6464,2418
6465,2090
6466,1776
6467,0
6468,2028
6469,1743
6470,0
6471,1682
6472,1975
6473,1767
6474,1408
6475,1477
6476,1872
6477,1834
6478,1520
6479,1518
6480,1847
6481,1809
6482,1363
6483,1311
6484,1755
6485,1943
6486,0
6487,1463
6488,1737
6489,1922
6490,1646
6491,1523
6492,1739
6493,2019
6494,1773
6495,1456
6496,1616
6497,1985
6498,1856
6499,1535
6500,1653
6501,1975
6502,1813
6503,1383
6504,1447
6505,1911
6506,2011
6507,1683
6508,1559
6509,1847
6510,1921
6511,1600
6512,1520
6513,1830
6514,2022
6515,1600
6516,1346
6517,1685
6518,2043
6519,1866
6520,1558
6521,1667
6522,1936
6523,1773
6524,0
6525,1645
6526,1982
6527,1874
6528,1503
6529,1563
6530,1968
6531,1999
6532,1600
6533,1488
6534,1873
6535,2066
6536,1743
6537,1566
6538,1815
6539,1975
6540,1690
6541,0
6542,1803
6543,2096
6544,1691
6545,1364
6546,1631
6547,2088
6548,0
6549,1632
6550,1680
6551,1986
6552,1891
6553,1571
6554,1639
6555,1997
6556,1934
6557,1418
6558,0
6559,1889
6560,2122
6561,1828
6562,1627
6563,1872
6564,2035
6565,0
6566,1570
6567,1825
6568,0
6569,1834
6570,1520
6571,1744
6572,2119
6573,2000
6574,1665
6575,1700
6576,2039
6577,1968
6578,1637
6579,1675
6580,2032
6581,2030
6582,1613
6583,1556
6584,1965
6585,0
6586,1779
6587,1581
6588,1859
6589,2097
6590,1840
6591,1668
6592,1926
6593,2224
6594,1904
6595,0
6596,0
6597,2250
6598,2155
6599,1839
6600,1879
6601,2198
6602,2098
6603,1706
6604,1721
6605,2087
6606,2064
6607,1604
6608,1499
6609,1901
6610,2057
6611,1719
6612,1584
6613,1851
6614,2030
6615,1584
6616,1360
6617,1727
6618,2109
6619,1919
6620,1607
6621,1707
6622,1975
6623,1826
6624,1531
6625,1651
6626,1965
6627,1791
6628,1399
6629,1598
6630,2394
6631,3102
6632,0
6633,4095
6634,4095
6635,4095
6636,3683
6637,2825
6638,2522
6639,2270
6640,1727
6641,1473
6642,1744
6643,2065
6644,1656
6645,1328
6646,0
6647,2004
6648,1878
6649,1582
6650,1690
6651,2020
6652,1930
6653,1535
6654,1521
6655,1917
6656,1936
6657,1614
6658,0
6659,1985
6660,2131
6661,1812
6662,1616
6663,0
6664,2044
6665,1743
6666,1563
6667,0
6668,2219
6669,2043
6670,1717
6671,1825
6672,2160
6673,1914
6674,1567
6675,1744
6676,2224
6677,2220
6678,1870
6679,1870
6680,2223
6681,2221
6682,1773
6683,0
6684,2191
6685,2384
6686,2096
6687,1989
6688,2317
6689,2539
6690,2176
6691,1946
6692,2250
6693,2587
6694,2404
6695,0
6696,2384
6697,2736
6698,2559
6699,2229
6700,2273
6701,2617
6702,2502
6703,2130
6704,2138
6705,2475
6706,2458
6707,2035
6708,1815
6709,2035
6710,2122
6711,1744
6712,1535
6713,1795
6714,1970
6715,1677
6716,1383
6717,1553
6718,1783
6719,1535
6720,1292
6721,1507
6722,1843
6723,1709
6724,1347
6725,1373
6726,1721
6727,1675
6728,1342
6729,1391
6730,1765
6731,1796
6732,1398
6733,1296
6734,1665
6735,1744
6736,1428
6737,1303
6738,1715
6739,1935
6740,1557
6741,1291
6742,1535
6743,1850
6744,1648
6745,0
6746,1591
6747,1950
6748,1806
6749,0
6750,1519
6751,1854
6752,1718
6753,1294
6754,1346
6755,1831
6756,1936
6757,1586
6758,1449
6759,1744
6760,1856
6761,1487
6762,1328
6763,1691
6764,1968
6765,1680
6766,1428
6767,1623
6768,1898
6769,1598
6770,1226
6771,1535
6772,1978
6773,1833
6774,1478
6775,1534
6776,1872
6777,1793
6778,1394
6779,1417
6780,1855
6781,1939
6782,1607
6783,1479
6784,1786
6785,1897
6786,1557
6787,0
6788,1765
6789,2007
6790,1729
6791,1441
6792,1647
6793,1904
6794,1677
6795,1424
6796,1635
6797,1983
6798,1699
6799,1277
6800,1414
6801,1897
6802,1895
6803,1588
6804,1555
6805,1900
6806,1942
6807,1587
6808,1519
6809,1903
6810,2037
6811,1643
6812,1463
6813,1755
6814,1983
6815,1713
6816,1509
6817,1750
6818,0
6819,1680
6820,1339
6821,1599
6822,2046
6823,1936
6824,1600
6825,1631
6826,1994
6827,1941
6828,1490
6829,1600
6830,2021
6831,2122
6832,1797
6833,1674
6834,1995
6835,2080
6836,1721
6837,1619
6838,1969
6839,2224
6840,1819
6841,1559
6842,1844
6843,2197
6844,1952
6845,1648
6846,1765
6847,0
6848,1821
6849,1418
6850,1568
6851,2032
6852,2031
6853,1733
6854,1588
6855,0
6856,1904
6857,1557
6858,1523
6859,1911
6860,2041
6861,1631
6862,1437
6863,1775
6864,1981
6865,1681
6866,0
6867,1680
6868,1987
6869,1757
6870,1763
6871,2534
6872,4034
6873,4095
6874,4095
6875,4095
6876,4095
6877,3237
6878,2096
6879,1690
6880,1937
6881,2000
6882,1665
6883,1583
6884,1899
6885,2033
6886,1596
6887,1423
6888,1808
6889,2077
6890,1775
6891,1534
6892,1772
6893,2087
6894,1779
6895,1441
6896,1635
6897,2025
6898,1903
6899,1591
6900,1687
6901,2044
6902,1922
6903,1465
6904,1513
6905,2003
6906,2115
6907,1766
6908,1680
6909,2000
6910,2125
6911,1763
6912,0
6913,1979
6914,2255
6915,2000
6916,1754
6917,1956
6918,2223
6919,2010
6920,1758
6921,1977
6922,2348
6923,2255
6924,1930
6925,1961
6926,2326
6927,2306
6928,0
6929,2025
6930,2467
6931,2559
6932,2207
6933,0
6934,2467
6935,2606
6936,2128
6937,1966
6938,0
6939,2693
6940,2416
6941,2188
6942,2384
6943,2636
6944,2186
6945,0
6946,1955
6947,2343
6948,2176
6949,1763
6950,1733
6951,2019
6952,1878
6953,1462
6954,1462
6955,1840
6956,1869
6957,1456
6958,1293
6959,1645
6960,1821
6961,1467
6962,1296
6963,1595
6964,1820
6965,1457
6966,0
6967,0
6968,1881
6969,1693
6970,1386
6971,1490
6972,1805
6973,1633
6974,1328
6975,1456
6976,1845
6977,1771
6978,1338
6979,1367
6980,1825
6981,1901
6982,1511
6983,1373
6984,1735
6985,1899
6986,1563
6987,1411
6988,1712
6989,1934
6990,1456
6991,1194
6992,1535
6993,1967
6994,1797
6995,1474
6996,1571
6997,1871
6998,1727
6999,1416
7000,1503
7001,1889
7002,1845
7003,1447
7004,1461
7005,1845
7006,1840
7007,0
7008,1273
7009,1751
7010,2005
7011,1699
7012,1454
7013,1692
7014,1909
7015,1623
7016,1424
7017,1667
7018,1955
7019,1728
7020,1443
7021,1648
7022,1978
7023,1766
7024,1368
7025,1472
7026,1925
7027,1935
7028,1580
7029,1509
7030,1866
7031,1901
7032,1530
7033,1468
7034,1840
7035,1968
7036,1493
7037,1300
7038,1733
7039,2045
7040,1808
7041,1535
7042,1726
7043,1995
7044,1749
7045,1483
7046,1658
7047,1986
7048,1817
7049,1462
7050,1589
7051,1989
7052,1929
7053,1519
7054,1507
7055,1936
7056,2023
7057,1658
7058,1535
7059,1866
7060,1995
7061,0
7062,1523
7063,1855
7064,2092
7065,1614
7066,1337
7067,1686
7068,2094
7069,1930
7070,1628
7071,1755
7072,2090
7073,1947
7074,1666
7075,1774
7076,2131
7077,2064
7078,1665
7079,1706
7080,2155
7081,2257
7082,1882
7083,1690
7084,1970
7085,2108
7086,1766
7087,1642
7088,1931
7089,2118
7090,1628
7091,1327
7092,1696
7093,2099
7094,1919
7095,1597
7096,1693
7097,2002
7098,1845
7099,0
7100,1671
7101,2034
7102,1861
7103,1351
7104,1403
7105,1918
7106,2009
7107,1617
7108,1495
7109,1926
7110,2336
7111,2469
7112,0
7113,4095
7114,4095
7115,4095
7116,4059
7117,3606
7118,2981
7119,2117
7120,1511
7121,1602
7122,1981
7123,1766
7124,1365
7125,1569
7126,2064
7127,2084
7128,1709
7129,1614
7130,1947
7131,1973
7132,0
7133,1535
7134,1886
7135,2043
7136,1665
7137,1501
7138,1872
7139,2126
7140,1795
7141,1514
7142,0
7143,2130
7144,1907
7145,1628
7146,1775
7147,2112
7148,1975
7149,0
7150,1776
7151,2157
7152,2027
7153,1584
7154,1620
7155,2115
7156,2255
7157,1911
7158,1778
7159,2117
7160,2239
7161,1913
7162,1796
7163,2123
7164,2394
7165,2100
7166,0
7167,0
7168,2529
7169,2302
7170,1990
7171,2176
7172,2599
7173,2497
7174,2192
7175,2245
7176,2600
7177,2538
7178,2205
7179,2254
7180,2645
7181,2605
7182,2066
7183,1979
7184,2414
7185,2587
7186,2203
7187,1917
7188,2101
7189,2230
7190,1856
7191,1600
7192,1776
7193,2007
7194,1683
7195,1338
7196,1535
7197,1893
7198,0
7199,1387
7200,1392
7201,1748
7202,1695
7203,1348
7204,1364
7205,1755
7206,1778
7207,1316
7208,1244
7209,1708
7210,1902
7211,1584
7212,1343
7213,0
7214,1840
7215,1535
7216,1346
7217,1613
7218,1918
7219,1535
7220,1204
7221,1474
7222,1933
7223,1851
7224,1490
7225,1490
7226,1825
7227,1773
7228,1429
7229,1473
7230,1856
7231,1873
7232,1413
7233,1303
7234,1763
7235,1983
7236,1659
7237,1445
7238,0
7239,1905
7240,1615
7241,1397
7242,1663
7243,1968
7244,1654
7245,0
7246,1525
7247,1954
7248,1854
7249,1505
7250,1534
7251,1883
7252,1808
7253,1450
7254,1487
7255,1876
7256,1893
7257,1428
7258,1377
7259,1814
7260,1967
7261,1532
7262,1347
7263,1731
7264,2037
7265,1774
7266,1507
7267,1703
7268,1968
7269,1733
7270,1469
7271,1671
7272,2027
7273,1742
7274,1303
7275,1455
7276,1954
7277,2000
7278,1650
7279,1577
7280,1919
7281,1957
7282,0
7283,1522
7284,1872
7285,2017
7286,1586
7287,1405
7288,1815
7289,2105
7290,1840
7291,1559
7292,1744
7293,2003
7294,1773
7295,1507
7296,1698
7297,2061
7298,1904
7299,1535
7300,1666
7301,2056
7302,0
7303,1526
7304,1511
7305,1961
7306,2068
7307,1701
7308,1582
7309,0
7310,1991
7311,1664
7312,0
7313,1897
7314,2160
7315,1808
7316,1557
7317,1888
7318,0
7319,2032
7320,1695
7321,1842
7322,2225
7323,2105
7324,1791
7325,1854
7326,2176
7327,2065
7328,1666
7329,1686
7330,2075
7331,2081
7332,1619
7333,1495
7334,1899
7335,2101
7336,1749
7337,1567
7338,1833
7339,2047
7340,1753
7341,1520
7342,1792
7343,0
7344,1742
7345,1394
7346,1648
7347,2101
7348,1994
7349,1605
7350,1571
7351,1899
7352,1941
7353,1881
7354,2393
7355,3654
7356,4095
7357,0
7358,4095
7359,4095
7360,4095
7361,0
7362,2034
7363,1887
7364,1956
7365,1677
7366,1519
7367,1835
7368,2171
7369,1799
7370,1413
7371,1664
7372,2113
7373,2002
7374,1648
7375,0
7376,1986
7377,1922
7378,1589
7379,1648
7380,2058
7381,2127
7382,1774
7383,1625
7384,1941
7385,2043
7386,0
7387,1607
7388,1953
7389,0
7390,1757
7391,1478
7392,1805
7393,2201
7394,1990
7395,1713
7396,1865
7397,0
7398,2042
7399,1681
7400,1831
7401,2275
7402,2288
7403,1918
7404,1859
7405,2240
7406,2278
7407,1936
7408,1927
7409,2334
7410,2477
7411,2012
7412,0
7413,0
7414,2614
7415,2338
7416,2129
7417,2384
7418,2729
7419,2431
7420,0
7421,2341
7422,2783
7423,2656
7424,2303
7425,2317
7426,2640
7427,2496
7428,2055
7429,2016
7430,2373
7431,2383
7432,1927
7433,1679
7434,1922
7435,1987
7436,1618
7437,1440
7438,1729
7439,1923
7440,1489
7441,1200
7442,0
7443,1847
7444,1618
7445,1314
7446,1481
7447,1827
7448,1580
7449,1169
7450,1291
7451,0
7452,1737
7453,1375
7454,1399
7455,1797
7456,1853
7457,1452
7458,1322
7459,1708
7460,1863
7461,1532
7462,1398
7463,1708
7464,1921
7465,1535
7466,0
7467,0
7468,1983
7469,1751
7470,1456
7471,0
7472,1949
7473,1700
7474,1279
7475,1402
7476,1885
7477,1886
7478,1523
7479,0
7480,1870
7481,1863
7482,1406
7483,0
7484,1775
7485,1951
7486,1601
7487,1451
7488,1761
7489,1975
7490,1499
7491,1247
7492,0
7493,1950
7494,1751
7495,1459
7496,1665
7497,2003
7498,1872
7499,1516
7500,1535
7501,1911
7502,1854
7503,1488
7504,0
7505,1954
7506,2010
7507,1648
7508,1504
7509,1824
7510,1965
7511,1597
7512,0
7513,1794
7514,2075
7515,1791
7516,1526
7517,1727
7518,2022
7519,1664
7520,1323
7521,0
7522,2047
7523,1936
7524,1584
7525,1642
7526,2010
7527,1921
7528,1489
7529,1474
7530,1903
7531,1968
7532,1651
7533,1567
7534,1949
7535,2085
7536,1652
7537,1436
7538,0
7539,2043
7540,1773
7541,1535
7542,1827
7543,2128
7544,1904
7545,1584
7546,1705
7547,2011
7548,1868
7549,1554
7550,1695
7551,2079
7552,1981
7553,0
7554,1559
7555,1970
7556,2027
7557,1664
7558,1616
7559,2002
7560,2157
7561,1728
7562,1571
7563,1963
7564,0
7565,1984
7566,1712
7567,1921
7568,2251
7569,2026
7570,1738
7571,1851
7572,2151
7573,1857
7574,1472
7575,1639
7576,2079
7577,1971
7578,1533
7579,1535
7580,2002
7581,2119
7582,1757
7583,1588
7584,1915
7585,2029
7586,1680
7587,1519
7588,1819
7589,2021
7590,1742
7591,1526
7592,1796
7593,2097
7594,1662
7595,1247
7596,1520
7597,2167
7598,2422
7599,2612
7600,3411
7601,0
7602,4095
7603,4095
7604,4095
7605,3984
7606,2880
7607,1781
7608,0
7609,1759
7610,2047
7611,1776
7612,1623
7613,1897
7614,0
7615,1776
7616,1493
7617,1792
7618,0
7619,0
7620,1553
7621,1687
7622,2006
7623,1853
7624,1535
7625,1662
7626,2064
7627,1994
7628,1567
7629,1535
7630,1977
7631,2042
7632,1686
7633,1648
7634,2013
7635,2118
7636,1664
7637,1486
7638,0
7639,2204
7640,1930
7641,1719
7642,1953
7643,2257
7644,1891
7645,0
7646,1830
7647,2314
7648,2197
7649,1872
7650,1949
7651,2332
7652,2244
7653,1847
7654,1920
7655,2418
7656,2531
7657,2191
7658,2101
7659,2439
7660,2558
7661,2103
7662,2018
7663,2443
7664,2817
7665,2527
7666,2269
7667,2465
7668,0
7669,2361
7670,2000
7671,2221
7672,2644
7673,2463
7674,2021
7675,1975
7676,0
7677,2047
7678,1535
7679,1519
7680,1966
7681,2014
7682,1579
7683,1422
7684,1744
7685,1833
7686,1274
7687,1092
7688,1520
7689,1838
7690,1557
7691,1307
7692,1595
7693,1906
7694,1690
7695,1363
7696,1490
7697,1855
7698,1587
7699,1161
7700,0
7701,1843
7702,1830
7703,1378
7704,1479
7705,1853
7706,1878
7707,1451
7708,1354
7709,1748
7710,1918
7711,1608
7712,0
7713,0
7714,2089
7715,1757
7716,1499
7717,1719
7718,2018
7719,1648
7720,0
7721,1520
7722,1971
7723,1874
7724,1535
7725,1658
7726,2033
7727,1983
7728,1600
7729,1535
7730,1910
7731,1954
7732,1600
7733,0
7734,1978
7735,2155
7736,1794
7737,1586
7738,1851
7739,2087
7740,1660
7741,0
7742,1781
7743,2176
7744,1946
7745,1651
7746,1791
7747,2128
7748,1858
7749,0
7750,1611
7751,2096
7752,2105
7753,1757
7754,1764
7755,2125
7756,2107
7757,1653
7758,1567
7759,1999
7760,2175
7761,1861
7762,0
7763,2077
7764,2319
7765,2023
7766,1773
7767,1967
7768,2262
7769,1913
7770,0
7771,1877
7772,2335
7773,2199
7774,1856
7775,1921
7776,2293
7777,2128
7778,0
7779,1705
7780,2237
7781,2368
7782,0
7783,1902
7784,2224
7785,2342
7786,1919
7787,1755
7788,2160
7789,2481
7790,0
7791,1923
7792,2112
7793,2407
7794,2025
7795,1710
7796,1981
7797,2466
7798,0
7799,2018
7800,2093
7801,2483
7802,2391
7803,1968
7804,2000
7805,2481
7806,2613
7807,2249
7808,2163
7809,2521
7810,2659
7811,2155
7812,1922
7813,2281
7814,2559
7815,2299
7816,2058
7817,2270
7818,2546
7819,2114
7820,1751
7821,0
7822,2497
7823,2401
7824,2042
7825,2064
7826,2414
7827,2352
7828,0
7829,2010
7830,2450
7831,2538
7832,2178
7833,2003
7834,2337
7835,2413
7836,2043
7837,1913
7838,2439
7839,0
7840,0
7841,4095
7842,4095
7843,4095
7844,4095
7845,4095
7846,4095
7847,4095
7848,3157
7849,2205
7850,1978
7851,2327
7852,2363
7853,2086
7854,2119
7855,2477
7856,2448
7857,1965
7858,1856
7859,2299
7860,2541
7861,2217
7862,2021
7863,2287
7864,2495
7865,2046
7866,1802
7867,2115
7868,2439
7869,2230
7870,1949
7871,2203
7872,2633
7873,2492
7874,2128
7875,2144
7876,0
7877,2312
7878,1862
7879,1920
7880,2421
7881,2519
7882,2191
7883,2150
7884,2550
7885,2715
7886,2385
7887,2178
7888,2436
7889,2663
7890,2378
7891,2173
7892,2484
7893,2864
7894,2660
7895,2358
7896,2478
7897,0
7898,2487
7899,2135
7900,2370
7901,2943
7902,2981
7903,2599
7904,2543
7905,2915
7906,2894
7907,2398
7908,2331
7909,2794
7910,2990
7911,2608
7912,2405
7913,2652
7914,2802
7915,2382
7916,2011
7917,2145
7918,2335
7919,2029
7920,1701
7921,1837
7922,2163
7923,1995
7924,1623
7925,1619
7926,0
7927,1687
7928,1228
7929,1290
7930,1769
7931,1875
7932,1521
7933,1443
7934,1766
7935,1888
7936,1506
7937,1305
7938,1584
7939,1776
7940,1499
7941,1296
7942,1597
7943,1914
7944,1662
7945,0
7946,1507
7947,1835
7948,1535
7949,1171
7950,1296
7951,1702
7952,1645
7953,1319
7954,1362
7955,1776
7956,1819
7957,1417
7958,1310
7959,1615
7960,1714
7961,1301
7962,1136
7963,1446
7964,0
7965,1359
7966,1138
7967,1429
7968,1743
7969,1490
7970,1193
7971,1387
7972,1725
7973,1535
7974,1201
7975,1271
7976,1600
7977,1477
7978,1083
7979,1079
7980,1474
7981,1455
7982,1066
7983,1012
7984,1439
7985,1582
7986,1245
7987,1110
7988,1456
7989,1667
7990,1341
7991,1099
7992,1303
7993,1574
7994,0
7995,950
7996,1131
7997,1489
7998,1399
7999,1087
8000,1178
8001,1567
8002,1493
8003,1126
8004,1123
8005,1466
8006,1508
8007,1152
8008,1053
8009,1365
8010,1472
8011,983
8012,816
8013,1202
8014,1495
8015,1249
8016,1018
8017,1293
8018,1616
8019,1360
8020,1075
8021,1242
8022,1553
8023,1383
8024,1055
8025,1091
8026,1452
8027,1323
8028,912
8029,959
8030,1392
8031,1461
8032,1168
8033,1094
8034,1482
8035,1632
8036,1255
8037,1106
8038,1401
8039,1639
8040,1329
8041,1126
8042,1386
8043,1635
8044,1361
8045,1114
8046,1340
8047,1743
8048,1647
8049,0
8050,1386
8051,1709
8052,1613
8053,0
8054,1231
8055,1563
8056,1565
8057,1141
8058,1023
8059,0
8060,1471
8061,1127
8062,986
8063,1374
8064,1616
8065,1296
8066,1085
8067,1328
8068,0
8069,1328
8070,1033
8071,1169
8072,0
8073,0
8074,967
8075,1101
8076,1637
8077,1874
8078,0
8079,2599
8080,3819
8081,4095
8082,3318
8083,2844
8084,2788
8085,2370
8086,1569
8087,1119
8088,1345
8089,1583
8090,1344
8091,1137
8092,1311
8093,1535
8094,1282
8095,995
8096,1211
8097,1582
8098,1413
8099,1087
8100,1136
8101,1471
8102,1369
8103,976
8104,1003
8105,1434
8106,1481
8107,1143
8108,1038
8109,1463
8110,1600
8111,1282
8112,1104
8113,1362
8114,0
8115,1200
8116,993
8117,1332
8118,1685
8119,1470
8120,1209
8121,1391
8122,1712
8123,1562
8124,1245
8125,1323
8126,1686
8127,1659
8128,0
8129,1404
8130,1836
8131,1898
8132,1535
8133,1465
8134,1784
8135,1894
8136,1596
8137,0
8138,1895
8139,2159
8140,1911
8141,1695
8142,1872
8143,2143
8144,1885
8145,0
8146,0
8147,2263
8148,2122
8149,1765
8150,1757
8151,2023
8152,1828
8153,1344
8154,1328
8155,1725
8156,1744
8157,1296
8158,1134
8159,1376
8160,1428
8161,915
8162,720
8163,0
8164,1362
8165,1074
8166,847
8167,1094
8168,1348
8169,1135
8170,831
8171,945
8172,0
8173,1107
8174,816
8175,963
8176,1367
8177,1339
8178,992
8179,931
8180,0
8181,1294
8182,955
8183,918
8184,1334
8185,1503
8186,1177
8187,983
8188,1217
8189,0
8190,1018
8191,794
8192,1211
8193,1460
8194,1264
8195,999
8196,1198
8197,1527
8198,1420
8199,1099
8200,1130
8201,1437
8202,1351
8203,982
8204,1023
8205,1463
8206,1535
8207,1167
8208,1107
8209,1431
8210,1535
8211,1101
8212,915
8213,0
8214,1561
8215,1310
8216,1042
8217,1372
8218,1699
8219,1456
8220,1151
8221,1298
8222,1616
8223,1398
8224,1043
8225,1151
8226,1572
8227,1535
8228,1205
8229,1246
8230,1664
8231,1727
8232,0
8233,1235
8234,1535
8235,1665
8236,1199
8237,1047
8238,1454
8239,1757
8240,1489
8241,1280
8242,1509
8243,1788
8244,1442
8245,1230
8246,1397
8247,1755
8248,1619
8249,1295
8250,0
8251,1808
8252,1777
8253,1471
8254,1431
8255,1799
8256,1856
8257,1515
8258,1415
8259,1710
8260,1821
8261,1394
8262,1233
8263,1613
8264,1876
8265,1606
8266,1410
8267,1683
8268,1986
8269,1840
8270,1583
8271,1698
8272,2011
8273,1730
8274,1344
8275,1518
8276,1988
8277,2000
8278,1684
8279,1695
8280,2079
8281,2111
8282,1702
8283,1595
8284,1922
8285,2064
8286,1731
8287,1517
8288,1757
8289,1953
8290,1606
8291,1375
8292,1681
8293,2032
8294,1818
8295,1520
8296,1681
8297,2006
8298,1891
8299,1563
8300,0
8301,1940
8302,1871
8303,1498
8304,1478
8305,0
8306,2032
8307,1964
8308,2391
8309,3637
8310,4095
8311,4095
8312,4095
8313,4095
8314,3937
8315,2491
8316,1714
8317,1717
8318,1982
8319,1803
8320,1535
8321,1749
8322,2144
8323,2003
8324,0
8325,1719
8326,2043
8327,2000
8328,1648
8329,1599
8330,1970
8331,1989
8332,1616
8333,1562
8334,1969
8335,2127
8336,1799
8337,1661
8338,1982
8339,2218
8340,1956
8341,1723
8342,1914
8343,2209
8344,1837
8345,1520
8346,1747
8347,2160
8348,2064
8349,1749
8350,1876
8351,2311
8352,2282
8353,1911
8354,1914
8355,2281
8356,2320
8357,1940
8358,1850
8359,0
8360,2386
8361,2032
8362,1895
8363,2279
8364,2596
8365,2327
8366,2113
8367,2382
8368,2711
8369,2517
8370,2259
8371,2395
8372,2736
8373,2511
8374,2134
8375,2246
8376,2705
8377,2741
8378,2384
8379,2324
8380,0
8381,2654
8382,2234
8383,2096
8384,2391
8385,2480
8386,0
8387,0
8388,0
8389,2240
8390,1873
8391,1584
8392,1797
8393,2084
8394,1810
8395,1502
8396,1678
8397,2000
8398,1830
8399,1481
8400,1583
8401,1964
8402,1912
8403,0
8404,0
8405,1937
8406,2014
8407,1642
8408,1531
8409,1874
8410,2027
8411,1667
8412,0
8413,1818
8414,2064
8415,1775
8416,1516
8417,1763
8418,2063
8419,1845
8420,0
8421,0
8422,2004
8423,1857
8424,1520
8425,1614
8426,1982
8427,1911
8428,1563
8429,1535
8430,1949
8431,2003
8432,1648
8433,1535
8434,1893
8435,2064
8436,1738
8437,0
8438,1827
8439,2059
8440,1775
8441,1529
8442,1785
8443,2089
8444,1859
8445,1535
8446,1712
8447,2077
8448,1939
8449,1591
8450,1673
8451,2074
8452,2034
8453,1653
8454,1648
8455,2020
8456,2083
8457,1705
8458,1614
8459,1951
8460,2105
8461,1759
8462,1605
8463,1899
8464,2127
8465,1834
8466,0
8467,0
8468,2111
8469,1882
8470,1594
8471,1741
8472,2079
8473,1953
8474,1647
8475,1723
8476,2059
8477,2030
8478,1688
8479,1680
8480,2022
8481,2087
8482,0
8483,1648
8484,1963
8485,2097
8486,1787
8487,1629
8488,1946
8489,2204
8490,0
8491,1717
8492,1968
8493,2277
8494,2035
8495,1733
8496,1888
8497,2277
8498,2170
8499,1859
8500,1925
8501,2250
8502,2162
8503,1755
8504,1733
8505,2098
8506,2160
8507,1777
8508,1655
8509,1969
8510,2114
8511,1785
8512,1598
8513,1867
8514,2094
8515,1825
8516,1593
8517,1802
8518,2096
8519,1889
8520,0
8521,1738
8522,2077
8523,1851
8524,1441
8525,1490
8526,0
8527,1882
8528,1665
8529,2083
8530,3170
8531,4095
8532,4070
8533,4095
8534,0
8535,4093
8536,2871
8537,2113
8538,2018
8539,2077
8540,1775
8541,1533
8542,1799
8543,2123
8544,1907
8545,1685
8546,1765
8547,2089
8548,1921
8549,1588
8550,0
8551,2071
8552,2001
8553,1648
8554,1663
8555,2071
8556,2135
8557,0
8558,1681
8559,2059
8560,2222
8561,1854
8562,1678
8563,1991
8564,2254
8565,1938
8566,1702
8567,1968
8568,2340
8569,2097
8570,1765
8571,1914
8572,2289
8573,2169
8574,1842
8575,1939
8576,2325
8577,2275
8578,1904
8579,1924
8580,2318
8581,2402
8582,2062
8583,1984
8584,2327
8585,2490
8586,2192
8587,2062
8588,2374
8589,2649
8590,2393
8591,2178
8592,2406
8593,2714
8594,2535
8595,2262
8596,2401
8597,2736
8598,2624
8599,2290
8600,2327
8601,2647
8602,2549
8603,2131
8604,2027
8605,2295
8606,2288
8607,1863
8608,1687
8609,1947
8610,2045
8611,1651
8612,0
8613,1691
8614,1911
8615,1535
8616,1264
8617,1498
8618,1855
8619,1513
8620,1168
8621,1363
8622,1791
8623,1631
8624,1250
8625,1343
8626,1776
8627,1717
8628,1344
8629,1344
8630,1768
8631,1837
8632,1465
8633,1359
8634,1747
8635,1855
8636,1523
8637,1348
8638,1695
8639,1929
8640,1650
8641,1402
8642,1667
8643,1945
8644,1709
8645,1402
8646,1612
8647,2000
8648,1855
8649,1472
8650,1565
8651,1968
8652,1910
8653,1504
8654,1503
8655,1888
8656,1949
8657,1570
8658,1470
8659,1817
8660,1965
8661,0
8662,0
8663,1728
8664,1968
8665,1667
8666,1424
8667,1655
8668,1962
8669,1776
8670,1472
8671,1587
8672,1890
8673,1712
8674,1394
8675,1458
8676,1846
8677,1815
8678,1431
8679,1405
8680,1794
8681,1872
8682,1443
8683,1343
8684,1719
8685,1897
8686,1458
8687,1282
8688,1637
8689,0
8690,1497
8691,1245
8692,1557
8693,1936
8694,1584
8695,1258
8696,1478
8697,1923
8698,1714
8699,1327
8700,1428
8701,1898
8702,1822
8703,1392
8704,1402
8705,1858
8706,1898
8707,1494
8708,1413
8709,0
8710,1943
8711,1605
8712,1419
8713,1766
8714,2000
8715,1731
8716,1517
8717,1805
8718,2122
8719,1909
8720,1600
8721,1783
8722,2150
8723,2006
8724,1671
8725,1776
8726,2178
8727,2098
8728,1685
8729,1636
8730,2011
8731,2085
8732,1709
8733,1571
8734,1918
8735,2025
8736,1655
8737,1477
8738,1831
8739,2075
8740,1745
8741,0
8742,0
8743,2094
8744,1837
8745,1465
8746,1670
8747,2064
8748,1911
8749,1530
8750,1605
8751,1942
8752,1867
8753,0
8754,1723
8755,2478
8756,3174
8757,3575
8758,4095
8759,4095
8760,4095
8761,3861
8762,2916
8763,2493
8764,0
8765,0
8766,1184
8767,1562
8768,2014
8769,1707
8770,1363
8771,1566
8772,1962
8773,1744
8774,1369
8775,1493
8776,1936
8777,1898
8778,1520
8779,1505
8780,1928
8781,1998
8782,1626
8783,1520
8784,1914
8785,2069
8786,1730
8787,1535
8788,1863
8789,2037
8790,1754
8791,1526
8792,0
8793,2150
8794,1922
8795,1602
8796,1781
8797,2150
8798,2004
8799,1679
8800,1798
8801,2189
8802,2111
8803,1766
8804,1808
8805,2233
8806,2292
8807,1935
8808,1859
8809,2271
8810,2479
8811,2130
8812,0
8813,2326
8814,2635
8815,2320
8816,2086
8817,2368
8818,2720
8819,2480
8820,2183
8821,2367
8822,2721
8823,2589
8824,2256
8825,2317
8826,2667
8827,2599
8828,2187
8829,2071
8830,2341
8831,2267
8832,1735
8833,1568
8834,1897
8835,2028
8836,1515
8837,1267
8838,1598
8839,1853
8840,1418
8841,1149
8842,1439
8843,1810
8844,1582
8845,1231
8846,1387
8847,1744
8848,1615
8849,1282
8850,1394
8851,1801
8852,1759
8853,1360
8854,1361
8855,1806
8856,1872
8857,1458
8858,1363
8859,1765
8860,1935
8861,0
8862,1392
8863,1705
8864,1925
8865,1640
8866,1393
8867,1622
8868,1915
8869,1705
8870,1399
8871,1535
8872,0
8873,1671
8874,1295
8875,1387
8876,1822
8877,1695
8878,1209
8879,1243
8880,0
8881,1799
8882,1360
8883,1268
8884,1712
8885,1888
8886,1454
8887,1275
8888,1648
8889,1933
8890,1616
8891,1335
8892,1602
8893,1904
8894,1611
8895,1301
8896,1527
8897,1927
8898,1790
8899,1438
8900,0
8901,1915
8902,1836
8903,1462
8904,1471
8905,1877
8906,1904
8907,1530
8908,1427
8909,1819
8910,1983
8911,1648
8912,1433
8913,1741
8914,1920
8915,1444
8916,1229
8917,1591
8918,2004
8919,1622
8920,1262
8921,1509
8922,1966
8923,1788
8924,1411
8925,1535
8926,1978
8927,2010
8928,1680
8929,1650
8930,1995
8931,2039
8932,1682
8933,1609
8934,1968
8935,2122
8936,0
8937,0
8938,0
8939,2191
8940,1850
8941,1535
8942,1803
8943,2115
8944,1886
8945,1535
8946,1724
8947,2075
8948,1916
8949,1557
8950,1664
8951,0
8952,2064
8953,1719
8954,1731
8955,2118
8956,2124
8957,1747
8958,1685
8959,2093
8960,2254
8961,1925
8962,1755
8963,2064
8964,2267
8965,1889
8966,1623
8967,1879
8968,2184
8969,1938
8970,1632
8971,1765
8972,2071
8973,1962
8974,1628
8975,1661
8976,0
8977,1936
8978,1535
8979,1524
8980,1921
8981,1938
8982,1463
8983,1399
8984,1829
8985,2011
8986,1513
8987,1309
8988,1649
8989,2002
8990,1776
8991,1905
8992,2804
8993,4095
8994,4095
8995,4095
8996,4095
8997,4095
8998,3102
8999,2034
9000,1681
9001,1926
9002,1770
9003,1365
9004,1472
9005,1990
9006,2039
9007,1596
9008,1489
9009,1901
9010,0
9011,1682
9012,1488
9013,1835
9014,2073
9015,1792
9016,1535
9017,0
9018,2068
9019,1843
9020,1570
9021,1789
9022,2161
9023,2007
9024,1654
9025,1766
9026,2165
9027,2105
9028,1711
9029,1744
9030,2177
9031,2224
9032,1829
9033,1751
9034,2153
9035,2319
9036,1947
9037,1789
9038,2119
9039,2355
9040,2094
9041,1840
9042,2075
9043,2401
9044,2109
9045,1799
9046,2000
9047,2438
9048,2251
9049,1902
9050,2038
9051,2507
9052,2470
9053,2143
9054,2187
9055,2624
9056,2671
9057,2313
9058,2247
9059,2655
9060,2815
9061,2413
9062,0
9063,0
9064,2736
9065,2325
9066,2005
9067,2192
9068,2422
9069,2079
9070,1694
9071,1820
9072,2125
9073,1878
9074,0
9075,1535
9076,1887
9077,1790
9078,1392
9079,1392
9080,1769
9081,1808
9082,1442
9083,1357
9084,1691
9085,1804
9086,1456
9087,1321
9088,1664
9089,1894
9090,1535
9091,1310
9092,1582
9093,1884
9094,1645
9095,1360
9096,1525
9097,1842
9098,1711
9099,1375
9100,1447
9101,1825
9102,1712
9103,1270
9104,1281
9105,1731
9106,1789
9107,1314
9108,1237
9109,1665
9110,1843
9111,1374
9112,1217
9113,1613
9114,1915
9115,1424
9116,1166
9117,1499
9118,1925
9119,1511
9120,1191
9121,1431
9122,1893
9123,1675
9124,1271
9125,1392
9126,1852
9127,0
9128,1264
9129,1308
9130,1791
9131,1841
9132,1387
9133,1327
9134,1776
9135,1931
9136,1574
9137,1392
9138,1743
9139,1968
9140,1680
9141,1444
9142,1744
9143,2055
9144,1805
9145,0
9146,1697
9147,2045
9148,1859
9149,1489
9150,1622
9151,2067
9152,2000
9153,1600
9154,1613
9155,2015
9156,2061
9157,1661
9158,1569
9159,1914
9160,2045
9161,1712
9162,1535
9163,1839
9164,2061
9165,1568
9166,1315
9167,1655
9168,2064
9169,1739
9170,1423
9171,1659
9172,2022
9173,1911
9174,1594
9175,1742
9176,2155
9177,2079
9178,1674
9179,1711
9180,2139
9181,2176
9182,1759
9183,1675
9184,2032
9185,2179
9186,0
9187,1678
9188,1952
9189,2175
9190,1781
9191,1585
9192,1905
9193,2289
9194,1840
9195,1493
9196,1786
9197,2258
9198,2165
9199,1851
9200,1985
9201,2378
9202,2294
9203,1899
9204,1875
9205,2282
9206,2323
9207,1920
9208,1842
9209,2210
9210,2336
9211,1968
9212,1787
9213,2079
9214,2301
9215,2013
9216,1765
9217,1981
9218,2304
9219,1876
9220,1567
9221,1831
9222,2288
9223,2101
9224,1746
9225,0
9226,2239
9227,2111
9228,1765
9229,1924
9230,2646
9231,3253
9232,3685
9233,4095
9234,4095
9235,4095
9236,4095
9237,0
9238,4095
9239,3405
9240,2342
9241,1843
9242,2095
9243,2457
9244,2320
9245,2066
9246,2211
9247,2512
9248,2311
9249,0
9250,2064
9251,2445
9252,2393
9253,2011
9254,2005
9255,2411
9256,2441
9257,2002
9258,1952
9259,2382
9260,2539
9261,2105
9262,1986
9263,2375
9264,2670
9265,2229
9266,2012
9267,2340
9268,0
9269,2462
9270,2171
9271,2379
9272,2798
9273,2559
9274,2217
9275,2367
9276,2835
9277,2805
9278,2446
9279,2455
9280,2880
9281,2955
9282,2542
9283,2511
9284,2960
9285,3253
9286,2895
9287,2738
9288,3111
9289,3481
9290,0
9291,2893
9292,3222
9293,3728
9294,3388
9295,3023
9296,3279
9297,3887
9298,3632
9299,3136
9300,3278
9301,3914
9302,3729
9303,0
9304,3027
9305,3503
9306,3438
9307,2818
9308,2667
9309,3014
9310,3107
9311,2588
9312,2367
9313,2675
9314,2891
9315,2483
9316,0
9317,0
9318,2816
9319,2517
9320,2193
9321,2358
9322,2757
9323,0
9324,2239
9325,2345
9326,2731
9327,2669
9328,0
9329,2326
9330,2711
9331,2755
9332,2393
9333,2311
9334,2647
9335,2771
9336,2448
9337,2307
9338,2608
9339,2811
9340,2501
9341,0
9342,2513
9343,2771
9344,2533
9345,2254
9346,2399
9347,2706
9348,2559
9349,2243
9350,2301
9351,2611
9352,2557
9353,2237
9354,2210
9355,2522
9356,2511
9357,2128
9358,2033
9359,2369
9360,2487
9361,2069
9362,1898
9363,2242
9364,2426
9365,1872
9366,1680
9367,2059
9368,2438
9369,2025
9370,1745
9371,1968
9372,2368
9373,2013
9374,1658
9375,1833
9376,0
9377,0
9378,1741
9379,1765
9380,2188
9381,2167
9382,1745
9383,1695
9384,0
9385,2186
9386,1746
9387,1618
9388,1968
9389,2180
9390,1753
9391,1488
9392,1799
9393,0
9394,0
9395,1422
9396,1653
9397,2054
9398,1719
9399,1357
9400,1519
9401,1947
9402,1801
9403,1408
9404,1453
9405,1856
9406,1857
9407,1488
9408,1418
9409,0
9410,1809
9411,1462
9412,1318
9413,1637
9414,1758
9415,1425
9416,1231
9417,1518
9418,1744
9419,1499
9420,1213
9421,1398
9422,1689
9423,1497
9424,1148
9425,1247
9426,1582
9427,1424
9428,1124
9429,1195
9430,1594
9431,1565
9432,1198
9433,1117
9434,1457
9435,1495
9436,1199
9437,1121
9438,1470
9439,1535
9440,1199
9441,946
9442,1199
9443,0
9444,1152
9445,880
9446,1088
9447,1326
9448,1115
9449,814
9450,942
9451,1263
9452,1127
9453,784
9454,836
9455,1197
9456,1167
9457,827
9458,766
9459,1119
9460,1130
9461,809
9462,0
9463,0
9464,1012
9465,688
9466,637
9467,1258
9468,2043
9469,2371
9470,2642
9471,3169
9472,3344
9473,2670
9474,1887
9475,1489
9476,0
9477,999
9478,639
9479,659
9480,1044
9481,994
9482,683
9483,650
9484,1007
9485,1005
9486,679
9487,579
9488,930
9489,981
9490,710
9491,555
9492,859
9493,1070
9494,892
9495,584
9496,0
9497,1072
9498,881
9499,628
9500,807
9501,1154
9502,1066
9503,747
9504,796
9505,1141
9506,1034
9507,736
9508,756
9509,1162
9510,1155
9511,827
9512,755
9513,1132
9514,1261
9515,902
9516,765
9517,1119
9518,1362
9519,1010
9520,807
9521,1095
9522,1472
9523,1153
9524,887
9525,1135
9526,1596
9527,1392
9528,1051
9529,1202
9530,1686
9531,1619
9532,1237
9533,1284
9534,1744
9535,0
9536,0
9537,1186
9538,1649
9539,1893
9540,1494
9541,1297
9542,1527
9543,0
9544,1421
9545,0
9546,1285
9547,1493
9548,1210
9549,837
9550,948
9551,1187
9552,991
9553,661
9554,718
9555,1088
9556,1019
9557,662
9558,620
9559,981
9560,994
9561,560
9562,483
9563,890
9564,1157
9565,849
9566,691
9567,955
9568,1223
9569,1038
9570,825
9571,1008
9572,1286
9573,1131
9574,0
9575,1023
9576,1361
9577,1242
9578,912
9579,1008
9580,1396
9581,1372
9582,1003
9583,998
9584,1360
9585,1424
9586,1047
9587,0
9588,1319
9589,1535
9590,1205
9591,1012
9592,1308
9593,1578
9594,1291
9595,1054
9596,1283
9597,1591
9598,1367
9599,1059
9600,1223
9601,1583
9602,1451
9603,1130
9604,1198
9605,1535
9606,1522
9607,1200
9608,1150
9609,1445
9610,1518
9611,1215
9612,1111
9613,1387
9614,1511
9615,1181
9616,1015
9617,1283
9618,1535
9619,1088
9620,828
9621,1117
9622,1456
9623,1198
9624,908
9625,1091
9626,1454
9627,1334
9628,1040
9629,1118
9630,1482
9631,1456
9632,1124
9633,1104
9634,1459
9635,1520
9636,1191
9637,1088
9638,1435
9639,1626
9640,1309
9641,0
9642,0
9643,1639
9644,1338
9645,1108
9646,1325
9647,1623
9648,1441
9649,1157
9650,1250
9651,1535
9652,1445
9653,1142
9654,1166
9655,1489
9656,1423
9657,1035
9658,1040
9659,1443
9660,1527
9661,1107
9662,1050
9663,1456
9664,1691
9665,1343
9666,1155
9667,1465
9668,1730
9669,1489
9670,0
9671,1531
9672,1815
9673,1618
9674,1273
9675,1377
9676,1680
9677,1567
9678,0
9679,1293
9680,1647
9681,1613
9682,1232
9683,1146
9684,1582
9685,1657
9686,1295
9687,1210
9688,1568
9689,1735
9690,1398
9691,0
9692,1497
9693,1722
9694,1462
9695,1231
9696,1393
9697,1636
9698,1453
9699,1298
9700,1700
9701,2495
9702,3047
9703,3395
9704,4005
9705,4095
9706,3701
9707,2559
9708,1997
9709,0
9710,1713
9711,1264
9712,1152
9713,1535
9714,1693
9715,1447
9716,1305
9717,1603
9718,1792
9719,1505
9720,1251
9721,1493
9722,1793
9723,1599
9724,1310
9725,1479
9726,1837
9727,1712
9728,0
9729,1483
9730,1872
9731,1855
9732,1491
9733,1478
9734,1874
9735,1941
9736,1602
9737,1515
9738,1830
9739,1983
9740,1712
9741,1563
9742,1819
9743,2059
9744,1817
9745,1600
9746,1785
9747,2091
9748,1813
9749,1526
9750,1730
9751,2130
9752,1951
9753,1623
9754,1759
9755,2195
9756,2171
9757,1764
9758,1791
9759,2250
9760,2405
9761,2097
9762,2007
9763,2382
9764,2491
9765,2222
9766,2114
9767,2457
9768,2694
9769,2430
9770,0
9771,0
9772,2718
9773,2457
9774,2098
9775,2211
9776,2502
9777,2302
9778,1874
9779,1885
9780,2176
9781,2070
9782,1664
9783,1619
9784,1929
9785,1955
9786,1595
9787,1470
9788,1751
9789,1901
9790,0
9791,1469
9792,1716
9793,1908
9794,1666
9795,1450
9796,1647
9797,1919
9798,1712
9799,1425
9800,1573
9801,1919
9802,1799
9803,1469
9804,1554
9805,1923
9806,1845
9807,1423
9808,1455
9809,1886
9810,1965
9811,1520
9812,1447
9813,1840
9814,2041
9815,1606
9816,1445
9817,1785
9818,2098
9819,0
9820,1503
9821,1756
9822,2111
9823,1790
9824,1479
9825,1670
9826,2086
9827,1907
9828,1535
9829,1621
9830,2039
9831,1981
9832,1584
9833,1583
9834,1997
9835,2090
9836,1650
9837,1565
9838,1945
9839,0
9840,1647
9841,1494
9842,1875
9843,2199
9844,1984
9845,1778
9846,1966
9847,2235
9848,2047
9849,1786
9850,1939
9851,2277
9852,2135
9853,1795
9854,1881
9855,2234
9856,2179
9857,1808
9858,1805
9859,2197
9860,2263
9861,1893
9862,0
9863,0
9864,2278
9865,1934
9866,1763
9867,2090
9868,2347
9869,2065
9870,1799
9871,2022
9872,2318
9873,2112
9874,1792
9875,1932
9876,2253
9877,2105
9878,1789
9879,1882
9880,2256
9881,2207
9882,1847
9883,1823
9884,2182
9885,2214
9886,1885
9887,1788
9888,2128
9889,2291
9890,1993
9891,1793
9892,2071
9893,2279
9894,2009
9895,1773
9896,1998
9897,2275
9898,2014
9899,1737
9900,1904
9901,2297
9902,2097
9903,1729
9904,1851
9905,2295
9906,2274
9907,1875
9908,1875
9909,2275
9910,2378
9911,1987
9912,1923
9913,2317
9914,2518
9915,0
9916,1915
9917,2155
9918,2382
9919,2128
9920,1907
9921,2095
9922,2341
9923,2148
9924,1878
9925,2018
9926,2320
9927,2189
9928,1861
9929,1952
9930,2311
9931,2258
9932,1872
9933,1882
9934,2256
9935,2311
9936,1946
9937,1863
9938,2190
9939,2290
9940,1902
9941,1777
9942,2298
9943,2973
9944,3367
9945,0
9946,0
9947,4095
9948,4095
9949,4095
9950,4095
9951,3407
9952,2405
9953,1706
9954,0
9955,2178
9956,2223
9957,1904
9958,1872
9959,2213
9960,2205
9961,1833
9962,1742
9963,2113
9964,2242
9965,1924
9966,1751
9967,2059
9968,2273
9969,1999
9970,1758
9971,2017
9972,2322
9973,2118
9974,1799
9975,1966
9976,2298
9977,2167
9978,1840
9979,1936
9980,2310
9981,2259
9982,1906
9983,1899
9984,2288
9985,2315
9986,1980
9987,1888
9988,0
9989,2358
9990,2015
9991,1856
9992,2192
9993,2439
9994,2093
9995,1863
9996,2165
9997,2545
9998,2160
9999,1866
10000,2143
10001,2614
10002,2502
10003,2206
10004,2311
10005,2730
10006,2781
10007,2471
10008,2479
10009,2839
10010,2893
10011,0
10012,2449
10013,2810
10014,2949
10015,2524
10016,2290
10017,2530
10018,2704
10019,2305
10020,1967
10021,2127
10022,2343
10023,2061
10024,1666
10025,1743
10026,0
10027,0
10028,1343
10029,1430
10030,1835
10031,1655
10032,1152
10033,1202
10034,1696
10035,1824
10036,1427
10037,1342
10038,1702
10039,1879
10040,1619
10041,1488
10042,1758
10043,1951
10044,1663
10045,1443
10046,1686
10047,1969
10048,1750
10049,1484
10050,1637
10051,1962
10052,1824
10053,1515
10054,1623
10055,1985
10056,1921
10057,1554
10058,1582
10059,1963
10060,2004
10061,1609
10062,1511
10063,1871
10064,1991
10065,1633
10066,1446
10067,1776
10068,1998
10069,1702
10070,1431
10071,1673
10072,1935
10073,1681
10074,0
10075,1591
10076,1917
10077,1758
10078,1428
10079,1518
10080,0
10081,1789
10082,1433
10083,1454
10084,1842
10085,1837
10086,1475
10087,1411
10088,1787
10089,1901
10090,1571
10091,1406
10092,0
10093,1938
10094,1665
10095,1499
10096,1712
10097,2003
10098,1776
10099,1477
10100,1669
10101,2000
10102,1831
10103,1479
10104,1584
10105,0
10106,1921
10107,1558
10108,1518
10109,1888
10110,1910
10111,1558
10112,0
10113,0
10114,1923
10115,1512
10116,1350
10117,1701
10118,0
10119,1535
10120,1311
10121,1616
10122,1998
10123,1657
10124,1330
10125,1553
10126,1956
10127,1899
10128,1603
10129,0
10130,2000
10131,1974
10132,1637
10133,1648
10134,2006
10135,2035
10136,0
10137,1603
10138,1971
10139,2130
10140,1750
10141,1526
10142,1847
10143,2100
10144,1809
10145,1530
10146,1754
10147,2021
10148,1804
10149,1520
10150,0
10151,2081
10152,1909
10153,1584
10154,1693
10155,0
10156,1965
10157,1616
10158,1657
10159,2106
10160,2114
10161,1605
10162,1493
10163,1877
10164,2077
10165,1627
10166,1443
10167,1792
10168,2076
10169,1631
10170,1385
10171,1667
10172,2032
10173,1745
10174,1431
10175,1613
10176,2000
10177,1905
10178,0
10179,1651
10180,1995
10181,1987
10182,1659
10183,1629
10184,1957
10185,1986
10186,0
10187,1519
10188,1961
10189,2455
10190,2673
10191,3216
10192,4095
10193,4095
10194,4095
10195,4095
10196,3923
10197,3173
10198,2164
10199,0
10200,1649
10201,2091
10202,1984
10203,1634
10204,1712
10205,2032
10206,1904
10207,1535
10208,1561
10209,1949
10210,1901
10211,1511
10212,1449
10213,1860
10214,1931
10215,1556
10216,1413
10217,1780
10218,1921
10219,1535
10220,1360
10221,1707
10222,2059
10223,1628
10224,1326
10225,1609
10226,2090
10227,1892
10228,1514
10229,0
10230,2075
10231,2077
10232,1728
10233,1731
10234,2112
10235,2205
10236,1872
10237,1793
10238,2129
10239,2288
10240,1983
10241,1839
10242,2145
10243,2389
10244,2174
10245,1963
10246,2191
10247,2481
10248,2303
10249,2066
10250,2231
10251,2583
10252,2415
10253,2090
10254,2192
10255,2608
10256,2493
10257,2045
10258,2095
10259,2555
10260,0
10261,2109
10262,1982
10263,2353
10264,2450
10265,1982
10266,1744
10267,2029
10268,2182
10269,1842
10270,1520
10271,1727
10272,0
10273,1711
10274,1362
10275,1520
10276,1831
10277,1658
10278,1296
10279,1403
10280,1772
10281,1679
10282,1283
10283,1335
10284,1765
10285,1775
10286,1362
10287,1265
10288,1669
10289,1815
10290,1470
10291,0
10292,0
10293,1777
10294,1460
10295,1241
10296,1530
10297,0
10298,1383
10299,1088
10300,1351
10301,1807
10302,1568
10303,1165
10304,1315
10305,1776
10306,1826
10307,1518
10308,1518
10309,1860
10310,1877
10311,1491
10312,1456
10313,1842
10314,1954
10315,1555
10316,1377
10317,1733
10318,1910
10319,1600
10320,1328
10321,1579
10322,0
10323,1419
10324,1127
10325,1385
10326,1825
10327,1712
10328,1382
10329,1475
10330,1875
10331,1847
10332,1509
10333,1552
10334,1914
10335,1918
10336,1495
10337,1424
10338,1834
10339,2000
10340,1622
10341,1410
10342,1727
10343,1881
10344,1585
10345,1330
10346,1595
10347,1904
10348,1603
10349,1296
10350,1490
10351,1901
10352,1725
10353,1370
10354,1469
10355,1862
10356,1841
10357,0
10358,1527
10359,1909
10360,1952
10361,1596
10362,1508
10363,1857
10364,2000
10365,0
10366,1485
10367,1799
10368,2011
10369,1710
10370,1478
10371,1725
10372,2016
10373,1795
10374,1505
10375,1657
10376,1979
10377,1869
10378,1535
10379,1603
10380,1955
10381,1936
10382,1599
10383,1574
10384,1915
10385,1938
10386,1573
10387,1486
10388,1838
10389,1999
10390,1674
10391,1535
10392,1870
10393,0
10394,1775
10395,1488
10396,1754
10397,2112
10398,1856
10399,1573
10400,1782
10401,0
10402,1954
10403,1535
10404,1599
10405,1995
10406,1953
10407,1557
10408,1520
10409,1892
10410,1935
10411,1520
10412,1415
10413,1808
10414,1969
10415,1645
10416,1459
10417,1787
10418,1997
10419,1715
10420,1473
10421,1746
10422,2064
10423,1822
10424,0
10425,0
10426,2000
10427,1831
10428,1553
10429,1921
10430,2811
10431,3600
10432,3950
10433,4095
10434,4095
10435,4095
10436,3418
10437,2612
10438,2352
10439,2117
10440,1659
10441,1450
10442,1753
10443,2015
10444,1639
10445,1381
10446,1665
10447,2015
10448,1739
10449,1414
10450,1610
10451,1982
10452,1856
10453,1514
10454,0
10455,2041
10456,1984
10457,1600
10458,1629
10459,2033
10460,2096
10461,0
10462,1631
10463,1995
10464,2128
10465,1789
10466,1635
10467,1925
10468,2155
10469,1903
10470,1687
10471,1903
10472,2190
10473,1954
10474,1691
10475,1842
10476,2183
10477,2000
10478,1671
10479,1777
10480,2201
10481,2146
10482,1759
10483,1778
10484,2220
10485,2306
10486,1907
10487,1854
10488,2263
10489,2454
10490,2071
10491,1936
10492,2316
10493,2611
10494,2364
10495,2175
10496,2414
10497,2711
10498,2495
10499,0
10500,2381
10501,2718
10502,2509
10503,2106
10504,2149
10505,2463
10506,2314
10507,1869
10508,1799
10509,2122
10510,2087
10511,1711
10512,1534
10513,1850
10514,1941
10515,1535
10516,1360
10517,1648
10518,1842
10519,1556
10520,1295
10521,1507
10522,1797
10523,1495
10524,1194
10525,1385
10526,1783
10527,1533
10528,1141
10529,1271
10530,1723
10531,1648
10532,1258
10533,1279
10534,1747
10535,1787
10536,1400
10537,1311
10538,1698
10539,1796
10540,1429
10541,1282
10542,1653
10543,1899
10544,1589
10545,1328
10546,0
10547,1921
10548,1669
10549,1333
10550,1511
10551,1887
10552,1728
10553,1370
10554,1457
10555,1862
10556,1761
10557,1392
10558,1413
10559,1828
10560,0
10561,1475
10562,1394
10563,1801
10564,1879
10565,1523
10566,0
10567,0
10568,1914
10569,1571
10570,1326
10571,1616
10572,1918
10573,1583
10574,1280
10575,1517
10576,1965
10577,1698
10578,1279
10579,1409
10580,0
10581,1808
10582,1408
10583,1435
10584,1861
10585,1803
10586,1345
10587,1317
10588,1798
10589,1976
10590,1495
10591,1322
10592,1714
10593,0
10594,1574
10595,1309
10596,1644
10597,2037
10598,1722
10599,1391
10600,1615
10601,2015
10602,1851
10603,1488
10604,1589
10605,2000
10606,1936
10607,1570
10608,1571
10609,1971
10610,1994
10611,1625
10612,1569
10613,1988
10614,2121
10615,1750
10616,1566
10617,1904
10618,2129
10619,1811
10620,0
10621,0
10622,2192
10623,1935
10624,1630
10625,1848
10626,2231
10627,2073
10628,1731
10629,1846
10630,2217
10631,2160
10632,1801
10633,1821
10634,2208
10635,2274
10636,1914
10637,1776
10638,2068
10639,2177
10640,1821
10641,1637
10642,1904
10643,2126
10644,1705
10645,1429
10646,1721
10647,2066
10648,1813
10649,1500
10650,1711
10651,2071
10652,1907
10653,0
10654,1695
10655,2112
10656,2032
10657,1652
10658,1671
10659,2045
10660,2032
10661,1596
10662,1502
10663,1957
10664,2381
10665,2543
10666,3031
10667,4095
10668,4095
10669,4095
10670,3909
10671,3530
10672,3007
10673,2158
10674,1520
10675,1626
10676,1989
10677,1855
10678,1535
10679,1712
10680,2147
10681,2055
10682,1621
10683,1637
10684,2013
10685,2061
10686,1698
10687,1610
10688,1936
10689,2046
10690,1674
10691,1502
10692,1840
10693,2099
10694,1711
10695,0
10696,1761
10697,2116
10698,1906
10699,1602
10700,1814
10701,2227
10702,2065
10703,1718
10704,1825
10705,2189
10706,2151
10707,1797
10708,1779
10709,2139
10710,2112
10711,1649
10712,1616
10713,0
10714,2261
10715,1935
10716,1799
10717,2192
10718,2453
10719,2139
10720,1909
10721,2189
10722,2509
10723,0
10724,1966
10725,2158
10726,2559
10727,2461
10728,2141
10729,2277
10730,2710
10731,2649
10732,2274
10733,2281
10734,2645
10735,2666
10736,2247
10737,2119
10738,2434
10739,2494
10740,1927
10741,1698
10742,2035
10743,2201
10744,1855
10745,1574
10746,1820
10747,2097
10748,1775
10749,1424
10750,1594
10751,1903
10752,1745
10753,1399
10754,1447
10755,1789
10756,1630
10757,1200
10758,1250
10759,1728
10760,1781
10761,1415
10762,1377
10763,1796
10764,1904
10765,1525
10766,1369
10767,1676
10768,1875
10769,1562
10770,1333
10771,1588
10772,1899
10773,1529
10774,1230
10775,0
10776,1872
10777,1733
10778,1405
10779,1532
10780,1927
10781,0
10782,1470
10783,1535
10784,1967
10785,1983
10786,0
10787,0
10788,1845
10789,1968
10790,1634
10791,1469
10792,1758
10793,1957
10794,1655
10795,1406
10796,1651
10797,0
10798,0
10799,1263
10800,1509
10801,1941
10802,1637
10803,1235
10804,1410
10805,1887
10806,1830
10807,1434
10808,1425
10809,0
10810,1923
10811,1574
10812,1518
10813,1914
10814,2017
10815,1622
10816,1487
10817,1853
10818,2068
10819,0
10820,1533
10821,1774
10822,2025
10823,1749
10824,1442
10825,1618
10826,1968
10827,1811
10828,1484
10829,1616
10830,2016
10831,1940
10832,1580
10833,1616
10834,1993
10835,2015
10836,1655
10837,1567
10838,1904
10839,1984
10840,1520
10841,1366
10842,1771
10843,2018
10844,1712
10845,1489
10846,1808
10847,2130
10848,1847
10849,1566
10850,1767
10851,2106
10852,1942
10853,1606
10854,1691
10855,2046
10856,1946
10857,1535
10858,1535
10859,1966
10860,0
10861,1646
10862,1578
10863,1968
10864,2138
10865,1817
10866,0
10867,2077
10868,2257
10869,1923
10870,1703
10871,1951
10872,2251
10873,1941
10874,1648
10875,1851
10876,2220
10877,1973
10878,1582
10879,1683
10880,2078
10881,1962
10882,1586
10883,1633
10884,2047
10885,0
10886,1673
10887,1630
10888,1988
10889,2096
10890,1739
10891,0
10892,1870
10893,2054
10894,1648
10895,1423
10896,1734
10897,0
10898,1664
10899,1327
10900,1535
10901,1938
10902,1921
10903,1901
10904,2548
10905,3981
10906,4095
10907,4095
10908,4095
10909,4095
10910,4095
10911,2852
10912,2080
10913,1950
10914,1902
10915,0
10916,1389
10917,1828
10918,2088
10919,1788
10920,1565
10921,1840
10922,2127
10923,1854
10924,1535
10925,1779
10926,2145
10927,1937
10928,0
10929,1731
10930,2119
10931,2007
10932,1648
10933,1699
10934,2069
10935,2087
10936,0
10937,1647
10938,1990
10939,2064
10940,1620
10941,1503
10942,1901
10943,2160
10944,1779
10945,1584
10946,1906
10947,2235
10948,1843
10949,1574
10950,1838
10951,2253
10952,2029
10953,1697
10954,1844
10955,2291
10956,0
10957,1759
10958,1841
10959,2309
10960,2306
10961,1860
10962,1876
10963,2363
10964,2497
10965,2037
10966,1954
10967,2407
10968,2699
10969,2352
10970,2140
10971,2452
10972,2751
10973,2435
10974,2127
10975,2327
10976,2634
10977,0
10978,2018
10979,2110
10980,2411
10981,2224
10982,1776
10983,1759
10984,2108
10985,2047
10986,1585
10987,1495
10988,1858
10989,1930
10990,1523
10991,1383
10992,1711
10993,1873
10994,1535
10995,1313
10996,1578
10997,1838
10998,1619
10999,1342
11000,1510
11001,1819
11002,1616
11003,1281
11004,1395
11005,0
11006,0
11007,1269
11008,1303
11009,1825
11010,1764
11011,1371
11012,1318
11013,0
11014,1789
11015,1441
11016,1315
11017,1694
11018,1872
11019,1535
11020,0
11021,0
11022,1941
11023,1695
11024,1337
11025,1637
11026,1985
11027,1773
11028,1402
11029,1569
11030,1940
11031,1829
11032,1433
11033,1510
11034,1915
11035,1915
11036,1505
11037,1443
11038,1836
11039,1914
11040,1465
11041,1410
11042,1782
11043,1956
11044,1616
11045,1413
11046,1741
11047,2028
11048,1727
11049,0
11050,0
11051,2007
11052,1787
11053,1477
11054,1654
11055,1970
11056,0
11057,1505
11058,1565
11059,1923
11060,1913
11061,1535
11062,1510
11063,1864
11064,1946
11065,1607
11066,1473
11067,1790
11068,1970
11069,0
11070,1350
11071,1643
11072,1965
11073,1640
11074,1326
11075,1535
11076,1948
11077,1642
11078,1269
11079,1457
11080,1907
11081,1811
11082,1435
11083,1492
11084,1905
11085,1875
11086,1488
11087,1454
11088,1888
11089,1966
11090,1616
11091,1478
11092,1845
11093,2023
11094,1699
11095,1469
11096,1765
11097,1965
11098,1695
11099,1447
11100,1701
11101,2020
11102,1827
11103,0
11104,0
11105,2054
11106,1968
11107,1646
11108,1719
11109,2150
11110,2166
11111,1767
11112,1717
11113,2119
11114,2199
11115,1841
11116,1712
11117,2064
11118,0
11119,1670
11120,1459
11121,1809
11122,2128
11123,1680
11124,1345
11125,1618
11126,2025
11127,1860
11128,1535
11129,1658
11130,2019
11131,1938
11132,1596
11133,1646
11134,2015
11135,1999
11136,1622
11137,1610
11138,2001
11139,2091
11140,1680
11141,0
11142,1838
11143,1987
11144,1776
11145,1856
11146,2559
11147,0
11148,0
11149,4095
11150,4095
11151,4095
11152,3749
11153,2639
11154,2131
11155,0
11156,1821
11157,1443
11158,1535
11159,2001
11160,1952
11161,1498
11162,1456
11163,0
11164,1965
11165,1589
11166,1472
11167,1858
11168,2014
11169,1689
11170,0
11171,0
11172,2162
11173,1885
11174,1597
11175,1811
11176,2176
11177,1968
11178,0
11179,0
11180,2158
11181,2031
11182,1673
11183,1744
11184,2133
11185,0
11186,0
11187,1733
11188,2090
11189,2215
11190,1871
11191,1738
11192,2064
11193,2250
11194,1905
11195,1725
11196,2030
11197,2330
11198,1971
11199,1711
11200,1991
11201,2415
11202,2206
11203,1883
11204,2060
11205,2501
11206,2339
11207,1966
11208,2064
11209,2544
11210,2542
11211,2083
11212,2099
11213,2555
11214,2672
11215,2213
11216,2093
11217,2479
11218,2692
11219,0
11220,2015
11221,2229
11222,2419
11223,2025
11224,1698
11225,1846
11226,2114
11227,1898
11228,1555
11229,1633
11230,1917
11231,1770
11232,1394
11233,1431
11234,1818
11235,1807
11236,0
11237,1392
11238,1748
11239,1805
11240,1409
11241,1319
11242,1713
11243,1901
11244,1515
11245,0
11246,0
11247,1931
11248,1616
11249,1310
11250,1562
11251,1858
11252,1649
11253,1323
11254,1467
11255,1830
11256,1696
11257,1326
11258,1376
11259,1798
11260,1695
11261,1241
11262,1241
11263,1723
11264,1807
11265,1314
11266,1199
11267,1648
11268,1873
11269,1439
11270,1247
11271,1606
11272,1917
11273,1529
11274,1242
11275,1520
11276,1942
11277,1683
11278,1331
11279,1489
11280,1875
11281,1763
11282,1395
11283,1463
11284,0
11285,1821
11286,1429
11287,1408
11288,1837
11289,1905
11290,1555
11291,1425
11292,1808
11293,1990
11294,1663
11295,1445
11296,1767
11297,2016
11298,1718
11299,1431
11300,0
11301,2003
11302,1789
11303,1439
11304,1588
11305,1939
11306,1811
11307,0
11308,1535
11309,1965
11310,1938
11311,1535
11312,1535
11313,1943
11314,2031
11315,0
11316,1510
11317,1893
11318,2043
11319,1694
11320,1472
11321,1797
11322,2015
11323,1744
11324,1458
11325,0
11326,1983
11327,1725
11328,1402
11329,1583
11330,1966
11331,1808
11332,1425
11333,1501
11334,1934
11335,1895
11336,1487
11337,1473
11338,1910
11339,1967
11340,1499
11341,1391
11342,1815
11343,2041
11344,1603
11345,1391
11346,1744
11347,2095
11348,1702
11349,1439
11350,1743
11351,2159
11352,1874
11353,1525
11354,1712
11355,0
11356,0
11357,1609
11358,1709
11359,2195
11360,2112
11361,1613
11362,1535
11363,1993
11364,2047
11365,1600
11366,1481
11367,1893
11368,2089
11369,1623
11370,1424
11371,1767
11372,2095
11373,1770
11374,1506
11375,1751
11376,2096
11377,1933
11378,1637
11379,1767
11380,2126
11381,1978
11382,1606
11383,1685
11384,2022
11385,1897
11386,1480
11387,1517
11388,2174
11389,2694
11390,0
11391,3570
11392,4095
11393,4095
11394,4095
11395,3881
11396,3343
11397,2751
11398,1914
11399,0
11400,0
11401,2123
11402,1950
11403,1616
11404,1751
11405,2085
11406,1851
11407,1467
11408,1555
11409,1979
11410,1907
11411,1443
11412,1431
11413,1906
11414,2073
11415,1729
11416,1616
11417,1959
11418,2130
11419,1778
11420,1616
11421,1953
11422,2239
11423,1920
11424,1612
11425,1866
11426,2177
11427,1955
11428,1635
11429,1783
11430,2176
11431,1947
11432,1575
11433,1690
11434,2162
11435,2127
11436,1693
11437,1712
11438,2171
11439,2320
11440,0
11441,1904
11442,2259
11443,2432
11444,2095
11445,1947
11446,2306
11447,2628
11448,2333
11449,0
11450,0
11451,2642
11452,2432
11453,2106
11454,2291
11455,2703
11456,2547
11457,2179
11458,2225
11459,2637
11460,2559
11461,2115
11462,2063
11463,2436
11464,2501
11465,2079
11466,1892
11467,2164
11468,2244
11469,1801
11470,1535
11471,1828
11472,2023
11473,1670
11474,1353
11475,0
11476,1931
11477,1673
11478,1295
11479,1456
11480,1825
11481,1693
11482,1309
11483,1361
11484,0
11485,1730
11486,1339
11487,1314
11488,1731
11489,1752
11490,1360
11491,1243
11492,1639
11493,1802
11494,1344
11495,1181
11496,1556
11497,1873
11498,1514
11499,1258
11500,1530
11501,1897
11502,0
11503,1407
11504,1535
11505,1892
11506,1795
11507,1459
11508,1535
11509,1892
11510,1853
11511,1483
11512,1473
11513,1846
11514,1905
11515,1524
11516,1428
11517,1813
11518,1975
11519,1583
11520,1396
11521,1744
11522,2015
11523,1680
11524,1379
11525,1643
11526,1937
11527,1696
11528,1366
11529,1574
11530,1936
11531,1791
11532,1398
11533,1470
11534,0
11535,1803
11536,1434
11537,1411
11538,1829
11539,1875
11540,1472
11541,1354
11542,1735
11543,1902
11544,1357
11545,1232
11546,1630
11547,1965
11548,1725
11549,1470
11550,1673
11551,1983
11552,1790
11553,1503
11554,1681
11555,2064
11556,1883
11557,1483
11558,1581
11559,1990
11560,1953
11561,1535
11562,1506
11563,1910
11564,1894
11565,1491
11566,1389
11567,1797
11568,1981
11569,1535
11570,1333
11571,1687
11572,2003
11573,1629
11574,1315
11575,1629
11576,0
11577,0
11578,1571
11579,1712
11580,2047
11581,1903
11582,1554
11583,1678
11584,2119
11585,2086
11586,1677
11587,1683
11588,0
11589,2128
11590,1734
11591,1615
11592,2006
11593,2130
11594,1808
11595,1631
11596,1956
11597,2171
11598,1748
11599,1456
11600,1729
11601,2111
11602,1771
11603,1402
11604,1589
11605,1989
11606,1901
11607,1566
11608,1629
11609,1989
11610,1957
11611,1599
11612,1611
11613,1987
11614,2027
11615,1623
11616,1535
11617,1961
11618,2125
11619,0
11620,0
11621,0
11622,2025
11623,1826
11624,1852
11625,2608
11626,3849
11627,4095
11628,4095
11629,4095
11630,0
11631,3031
11632,2032
11633,1757
11634,1990
11635,1962
11636,1626
11637,1630
11638,2014
11639,2075
11640,1655
11641,1561
11642,1949
11643,2093
11644,1711
11645,1475
11646,1807
11647,1993
11648,1582
11649,1335
11650,1664
11651,2065
11652,1811
11653,1504
11654,1695
11655,2076
11656,1965
11657,1653
11658,1759
11659,2163
11660,2093
11661,0
11662,1654
11663,2069
11664,2090
11665,1711
11666,1621
11667,2006
11668,2125
11669,1623
11670,1472
11671,1895
11672,2251
11673,1887
11674,1678
11675,1982
11676,2341
11677,2155
11678,1888
11679,2115
11680,0
11681,0
11682,1965
11683,2061
11684,2445
11685,2314
11686,1953
11687,2000
11688,2463
11689,2559
11690,2134
11691,0
11692,2496
11693,2711
11694,2384
11695,2206
11696,2499
11697,2711
11698,2299
11699,1967
11700,0
11701,2442
11702,2096
11703,1681
11704,1818
11705,2143
11706,1927
11707,1485
11708,0
11709,1909
11710,1818
11711,1380
11712,1351
11713,1751
11714,1778
11715,1378
11716,0
11717,1687
11718,1799
11719,1424
11720,1244
11721,1629
11722,1881
11723,1535
11724,0
11725,0
11726,1882
11727,1636
11728,1302
11729,1519
11730,1914
11731,1749
11732,1381
11733,1498
11734,1923
11735,1841
11736,1387
11737,1445
11738,1856
11739,1904
11740,1518
11741,1415
11742,1774
11743,1926
11744,1590
11745,1387
11746,1680
11747,1927
11748,1594
11749,1323
11750,1573
11751,0
11752,1579
11753,1234
11754,1443
11755,1871
11756,1732
11757,1360
11758,1450
11759,0
11760,1802
11761,1423
11762,1440
11763,1872
11764,1927
11765,1515
11766,1442
11767,1854
11768,2004
11769,1616
11770,1430
11771,1776
11772,2015
11773,1669
11774,0
11775,0
11776,2029
11777,1749
11778,1434
11779,1627
11780,1995
11781,1840
11782,0
11783,1559
11784,1917
11785,1886
11786,1534
11787,1519
11788,1883
11789,1939
11790,0
11791,1479
11792,1840
11793,1988
11794,1653
11795,1483
11796,1807
11797,2032
11798,0
11799,1475
11800,1719
11801,2001
11802,1779
11803,1479
11804,1667
11805,2032
11806,1872
11807,0
11808,1601
11809,1965
11810,1910
11811,1562
11812,1578
11813,1949
11814,1979
11815,1595
11816,0
11817,1927
11818,2062
11819,1669
11820,1523
11821,1897
11822,2160
11823,1833
11824,1607
11825,1867
11826,2167
11827,1919
11828,1662
11829,1890
11830,2258
11831,2070
11832,1673
11833,0
11834,2058
11835,2000
11836,1638
11837,1616
11838,1970
11839,2007
11840,1615
11841,1478
11842,1811
11843,1935
11844,1469
11845,1280
11846,1669
11847,1973
11848,1535
11849,1285
11850,1616
11851,1984
11852,1731
11853,1397
11854,1584
11855,1936
11856,1705
11857,1314
11858,1507
11859,2179
11860,2441
11861,2623
11862,3459
11863,4095
11864,4095
11865,4075
11866,3395
11867,3045
11868,2471
11869,1535
11870,1231
11871,1657
11872,1987
11873,1705
11874,1469
11875,1765
11876,2087
11877,1814
11878,1475
11879,1664
11880,2001
11881,1842
11882,1505
11883,1633
11884,2057
11885,2004
11886,1616
11887,1634
11888,2064
11889,2107
11890,0
11891,1648
11892,2042
11893,2180
11894,1789
11895,1641
11896,1985
11897,2217
11898,1899
11899,1675
11900,1931
11901,2224
11902,2015
11903,1722
11904,1869
11905,2237
11906,2062
11907,1709
11908,1808
11909,2233
11910,2111
11911,1685
11912,1729
11913,2216
11914,0
11915,1817
11916,1783
11917,2272
11918,2450
11919,2013
11920,1875
11921,2304
11922,2594
11923,2293
11924,2067
11925,2379
11926,2673
11927,2443
11928,2175
11929,2389
11930,2765
11931,2559
11932,2153
11933,2192
11934,2510
11935,2362
11936,1921
11937,1867
11938,2189
11939,2095
11940,1648
11941,1519
11942,1883
11943,1923
11944,1523
11945,1333
11946,1664
11947,1844
11948,1488
11949,1229
11950,1527
11951,1833
11952,1586
11953,1262
11954,1408
11955,0
11956,1682
11957,1319
11958,1430
11959,1828
11960,1755
11961,1378
11962,1414
11963,1827
11964,1831
11965,1424
11966,1344
11967,1765
11968,1911
11969,1555
11970,1363
11971,1713
11972,1954
11973,1643
11974,0
11975,0
11976,1950
11977,1703
11978,1376
11979,1579
11980,1909
11981,1719
11982,1374
11983,1501
11984,1904
11985,1819
11986,1424
11987,1437
11988,1853
11989,1879
11990,1491
11991,1392
11992,1789
11993,1873
11994,1508
11995,1339
11996,1713
11997,1910
11998,1606
11999,1361
12000,1664
12001,1947
12002,1696
12003,1377
12004,1598
12005,1968
12006,1792
12007,1424
12008,1535
12009,1958
12010,1885
12011,1476
12012,1520
12013,1936
12014,1945
12015,1531
12016,0
12017,0
12018,2023
12019,1631
12020,1459
12021,1821
12022,2033
12023,1680
12024,1419
12025,1743
12026,2061
12027,1785
12028,1459
12029,1684
12030,2031
12031,1855
12032,1479
12033,1600
12034,0
12035,0
12036,1493
12037,1535
12038,1943
12039,1943
12040,1561
12041,1482
12042,0
12043,2034
12044,1689
12045,1494
12046,1830
12047,1978
12048,1636
12049,1424
12050,1741
12051,2033
12052,1737
12053,1436
12054,1646
12055,2021
12056,1744
12057,1381
12058,1535
12059,2017
12060,1879
12061,1461
12062,1535
12063,2025
12064,2115
12065,1712
12066,1622
12067,2013
12068,2156
12069,1698
12070,1584
12071,2005
12072,2288
12073,0
12074,1521
12075,1813
12076,2185
12077,1839
12078,1495
12079,1710
12080,2091
12081,1904
12082,1535
12083,1637
12084,2015
12085,1924
12086,1563
12087,1613
12088,2042
12089,2065
12090,1664
12091,1587
12092,1998
12093,2133
12094,1742
12095,1556
12096,1898
12097,2086
12098,1702
12099,1519
12100,2054
12101,2787
12102,3133
12103,3574
12104,0
12105,4095
12106,4095
12107,3975
12108,3307
12109,2823
12110,2131
12111,1474
12112,1498
12113,1973
12114,2037
12115,1689
12116,1610
12117,1997
12118,2045
12119,1666
12120,1506
12121,0
12122,2055
12123,1669
12124,1424
12125,1750
12126,2081
12127,1766
12128,1455
12129,1690
12130,2068
12131,1849
12132,1489
12133,1647
12134,2082
