Sample_Index,ADC_Value
0,1292
1,1399
2,1470
3,1440
4,1364
5,1405
6,1479
7,1462
8,1401
9,1440
10,1563
11,1584
12,1498
13,1485
14,1587
15,1627
16,1568
17,1535
18,1646
19,1690
20,1642
21,1600
22,1673
23,1728
24,1685
25,1651
26,1721
27,1781
28,1766
29,1726
30,1779
31,1843
32,1850
33,1808
34,1858
35,1957
36,1983
37,1932
38,1941
39,2034
40,2102
41,2053
42,2043
43,2139
44,2230
45,2193
46,2171
47,2254
48,2349
49,2318
50,2277
51,2338
52,2461
53,2443
54,2355
55,2367
56,2467
57,2448
58,2323
59,2295
60,2349
61,2291
62,2141
63,2038
64,2058
65,2000
66,1872
67,1772
68,1791
69,1771
70,1664
71,1565
72,1616
73,1675
74,1666
75,1622
76,1683
77,1735
78,1689
79,1616
80,1648
81,1716
82,1709
83,1645
84,1663
85,1745
86,1769
87,1713
88,1715
89,1799
90,1859
91,1807
92,1775
93,1854
94,1925
95,1869
96,1810
97,1867
98,1948
99,1899
100,1802
101,1837
102,1903
103,1838
104,1734
105,1758
106,1818
107,1802
108,1733
109,1743
110,1812
111,1831
112,1766
113,1767
114,1834
115,1894
116,1840
117,1821
118,0
119,1935
120,1877
121,1813
122,1848
123,1931
124,1877
125,0
126,1787
127,1875
128,1849
129,1744
130,1745
131,1807
132,1796
133,1734
134,1744
135,1811
136,1835
137,1791
138,1786
139,1873
140,1936
141,1877
142,1843
143,1904
144,1941
145,1878
146,1835
147,1904
148,2019
149,1995
150,1925
151,1968
152,2045
153,2001
154,1878
155,1890
156,1985
157,2022
158,1993
159,2017
160,2068
161,2032
162,1949
163,1920
164,1954
165,1983
166,1934
167,1899
168,1936
169,1990
170,1943
171,1873
172,1894
173,1979
174,1941
175,1845
176,1865
177,1953
178,1931
179,1830
180,1822
181,1879
182,1872
183,1797
184,1787
185,1830
186,1826
187,1840
188,2063
189,2559
190,3335
191,4095
192,4095
193,4095
194,4095
195,4095
196,3249
197,0
198,2185
199,1941
200,1840
201,1883
202,1999
203,1990
204,1895
205,1890
206,1947
207,1923
208,1870
209,1879
210,1955
211,1983
212,1931
213,1927
214,2004
215,2067
216,2003
217,1963
218,2029
219,2081
220,2032
221,2021
222,2092
223,2154
224,2101
225,2056
226,2096
227,2192
228,2173
229,2081
230,2081
231,2163
232,2159
233,2077
234,2078
235,2160
236,2191
237,2148
238,2153
239,2241
240,2321
241,2295
242,2305
243,2401
244,2474
245,0
246,2397
247,2462
248,2549
249,2517
250,2417
251,2448
252,2526
253,2517
254,2467
255,2509
256,2615
257,2640
258,2597
259,2559
260,2624
261,2599
262,2459
263,2348
264,2347
265,2278
266,0
267,2037
268,2075
269,2118
270,2021
271,1925
272,1935
273,1981
274,1899
275,1759
276,1767
277,1808
278,1776
279,1725
280,1759
281,1858
282,1874
283,1823
284,1827
285,1935
286,1941
287,1871
288,1840
289,1953
290,2019
291,1902
292,1805
293,1867
294,1904
295,1842
296,1773
297,1810
298,1856
299,1826
300,1787
301,1841
302,1951
303,1936
304,1871
305,1868
306,1951
307,1943
308,1865
309,1851
310,1961
311,1979
312,1857
313,0
314,1841
315,1843
316,1776
317,1729
318,1802
319,1835
320,1781
321,1740
322,1795
323,1872
324,1842
325,1797
326,1758
327,1922
328,1887
329,1825
330,1837
331,1950
332,1940
333,1813
334,1759
335,1855
336,1858
337,1757
338,1709
339,1779
340,1805
341,1751
342,1682
343,1712
344,1786
345,1752
346,1731
347,1770
348,1838
349,0
350,1776
351,1840
352,1941
353,1905
354,1776
355,1744
356,1787
357,1761
358,1680
359,1670
360,1757
361,1759
362,1691
363,1648
364,1724
365,1749
366,1649
367,1535
368,1602
369,1630
370,1569
371,1503
372,1535
373,1614
374,1613
375,1581
376,1624
377,1727
378,1679
379,1521
380,1487
381,1654
382,1891
383,2256
384,2832
385,3714
386,4095
387,4095
388,3611
389,3071
390,2496
391,1969
392,1670
393,0
394,0
395,1613
396,1555
397,1623
398,1710
399,1669
400,1559
401,1566
402,1613
403,1594
404,1535
405,1580
406,1694
407,1693
408,1653
409,1653
410,1747
411,1771
412,1680
413,0
414,1712
415,1741
416,1651
417,1616
418,1674
419,1712
420,1683
421,1671
422,1740
423,1840
424,1815
425,1727
426,1787
427,1901
428,1891
429,1840
430,1845
431,1950
432,1979
433,1884
434,1857
435,1950
436,1962
437,1898
438,1905
439,2010
440,2079
441,2046
442,2047
443,0
444,2220
445,2188
446,2176
447,2238
448,2320
449,2306
450,2210
451,2246
452,2321
453,2266
454,2111
455,2047
456,2076
457,1998
458,1855
459,1790
460,1808
461,1787
462,1681
463,1639
464,1695
465,1726
466,1600
467,1487
468,1527
469,1535
470,1463
471,1365
472,1399
473,1488
474,1477
475,1453
476,1510
477,1611
478,1583
479,1472
480,1458
481,1522
482,1491
483,1427
484,1442
485,1569
486,1616
487,1565
488,1535
489,1647
490,1680
491,1570
492,1462
493,1502
494,1566
495,1535
496,1535
497,1598
498,1713
499,1666
500,1535
501,1535
502,1579
503,1522
504,1472
505,1504
506,1615
507,1629
508,1581
509,1575
510,0
511,1649
512,1582
513,1535
514,1639
515,1680
516,1585
517,1478
518,1521
519,1559
520,1511
521,1493
522,1563
523,1664
524,1645
525,1584
526,1616
527,1680
528,0
529,1584
530,1581
531,1663
532,1648
533,1535
534,1519
535,1588
536,1595
537,1535
538,1535
539,1649
540,1748
541,0
542,1731
543,1801
544,1847
545,1781
546,1745
547,1837
548,1964
549,1946
550,1857
551,1830
552,1840
553,1770
554,1675
555,1670
556,1749
557,1770
558,1710
559,1680
560,1745
561,1761
562,1672
563,1609
564,1678
565,1642
566,1631
567,1535
568,1598
569,1616
570,1575
571,1535
572,1618
573,1728
574,1701
575,1621
576,1601
577,1670
578,1741
579,1872
580,2291
581,2958
582,3824
583,4095
584,4095
585,4092
586,3395
587,2624
588,2003
589,1706
590,1587
591,1533
592,1554
593,1671
594,1798
595,1791
596,1744
597,1769
598,1831
599,1791
600,1683
601,1658
602,1701
603,1675
604,1630
605,1673
606,1785
607,1814
608,1772
609,1767
610,1851
611,1889
612,1812
613,0
614,1837
615,0
616,1795
617,1743
618,1799
619,1871
620,1825
621,1853
622,1929
623,2018
624,2001
625,1939
626,0
627,2039
628,2014
629,1954
630,1983
631,2083
632,2123
633,2096
634,2128
635,2237
636,2313
637,2270
638,2241
639,2342
640,0
641,2358
642,2288
643,2342
644,2403
645,2417
646,2447
647,2540
648,2672
649,2642
650,2538
651,2512
652,2541
653,2436
654,2259
655,2187
656,2198
657,2169
658,0
659,1991
660,2045
661,2027
662,1874
663,1757
664,1770
665,1795
666,1745
667,1742
668,1818
669,1898
670,0
671,1717
672,1744
673,1779
674,0
675,0
676,0
677,1873
678,1867
679,1762
680,1728
681,1782
682,1764
683,1728
684,1765
685,1878
686,1897
687,1780
688,1715
689,1793
690,1869
691,1813
692,1765
693,1831
694,1845
695,1761
696,1706
697,1773
698,1883
699,1860
700,0
701,0
702,1892
703,1841
704,1719
705,1706
706,1808
707,1855
708,1791
709,1761
710,1843
711,1835
712,1725
713,1680
714,1772
715,1840
716,1791
717,1748
718,1811
719,1839
720,1735
721,1663
722,1729
723,1840
724,1789
725,1680
726,1672
727,1740
728,1680
729,1579
730,1584
731,1697
732,1744
733,1685
734,1661
735,1731
736,1714
737,1610
738,1571
739,1664
740,1735
741,0
742,1634
743,1708
744,1756
745,1706
746,1662
747,1728
748,1838
749,1818
750,1760
751,1808
752,1936
753,1942
754,1840
755,1793
756,1837
757,1839
758,1762
759,1741
760,1815
761,1840
762,1708
763,1589
764,1616
765,1642
766,0
767,1585
768,1675
769,1775
770,1712
771,1591
772,1584
773,1615
774,1602
775,1586
776,1645
777,1744
778,1725
779,1585
780,1498
781,1527
782,1639
783,1872
784,2334
785,3054
786,4095
787,4095
788,4095
789,3952
790,3289
791,2591
792,2000
793,1686
794,1631
795,1616
796,1582
797,1643
798,1730
799,1738
800,1701
801,1715
802,1782
803,1758
804,1645
805,1623
806,1703
807,1743
808,1713
809,0
810,1764
811,1755
812,1693
813,1670
814,1761
815,1836
816,1789
817,1722
818,1750
819,1792
820,1776
821,1790
822,1862
823,1953
824,1925
825,1836
826,1817
827,1871
828,1894
829,1902
830,1938
831,2033
832,2057
833,1968
834,1935
835,1989
836,2078
837,2096
838,2108
839,2203
840,2253
841,2193
842,2127
843,2175
844,2259
845,2290
846,2290
847,2340
848,2397
849,2362
850,2290
851,2320
852,0
853,2394
854,0
855,2288
856,2266
857,2192
858,2105
859,2046
860,2067
861,1986
862,1831
863,1728
864,1735
865,1758
866,1683
867,1595
868,1575
869,1563
870,1517
871,1520
872,1571
873,1648
874,1626
875,1522
876,1486
877,1525
878,1564
879,1579
880,1579
881,1632
882,1587
883,1520
884,1509
885,1605
886,1694
887,1651
888,1574
889,1574
890,1625
891,1627
892,1618
893,1659
894,1680
895,1601
896,1557
897,1599
898,1703
899,1711
900,1643
901,1616
902,1630
903,1603
904,1584
905,1627
906,1725
907,1747
908,1652
909,1584
910,1616
911,1677
912,1662
913,1628
914,1671
915,1671
916,1600
917,1568
918,1623
919,1705
920,1681
921,1626
922,1633
923,1649
924,1621
925,1621
926,1662
927,1754
928,0
929,1675
930,1626
931,1653
932,1689
933,1685
934,1679
935,1713
936,1691
937,1649
938,1664
939,1750
940,1795
941,1737
942,1649
943,1666
944,1747
945,1755
946,1698
947,1692
948,1741
949,1759
950,1721
951,1715
952,1741
953,1712
954,1706
955,1756
956,1884
957,1929
958,1866
959,1808
960,1855
961,1905
962,1893
963,1870
964,1909
965,1938
966,1931
967,1920
968,1943
969,1937
970,1844
971,1761
972,1773
973,1853
974,1843
975,1758
976,1712
977,1742
978,1763
979,1744
980,1730
981,1767
982,1728
983,1679
984,1702
985,1793
986,1842
987,1791
988,1712
989,1695
990,1744
991,1712
992,1664
993,1744
994,1950
995,2282
996,2823
997,3781
998,4095
999,4095
1000,4095
1001,3954
1002,3173
1003,2419
1004,1854
1005,1616
1006,1646
1007,1755
1008,1817
1009,1839
1010,1877
1011,1835
1012,1778
1013,1773
1014,1836
1015,1834
1016,1766
1017,1756
1018,1823
1019,1887
1020,1825
1021,1752
1022,1792
1023,1891
1024,1899
1025,1809
1026,1791
1027,1877
1028,1904
1029,1851
1030,1825
1031,0
1032,1919
1033,1904
1034,1881
1035,1909
1036,1946
1037,1942
1038,1948
1039,1998
1040,1994
1041,1952
1042,1973
1043,2065
1044,2127
1045,2071
1046,2033
1047,2096
1048,2198
1049,2208
1050,2143
1051,2151
1052,2240
1053,2288
1054,2271
1055,2256
1056,2290
1057,2340
1058,0
1059,2368
1060,2426
1061,2405
1062,2352
1063,2369
1064,2448
1065,2479
1066,2385
1067,2271
1068,2240
1069,2237
1070,2160
1071,2018
1072,1943
1073,1935
1074,1877
1075,1797
1076,1729
1077,1704
1078,1689
1079,1650
1080,1622
1081,1617
1082,1584
1083,1567
1084,1584
1085,1626
1086,1592
1087,1559
1088,1579
1089,1632
1090,1630
1091,1578
1092,1571
1093,1633
1094,1668
1095,1616
1096,1578
1097,1605
1098,1691
1099,1680
1100,1621
1101,1622
1102,1689
1103,1683
1104,1627
1105,1696
1106,1683
1107,1696
1108,1641
1109,1616
1110,1685
1111,1698
1112,0
1113,1616
1114,1679
1115,1694
1116,1635
1117,1611
1118,1667
1119,1715
1120,1661
1121,1607
1122,1639
1123,1726
1124,1712
1125,1623
1126,1600
1127,1675
1128,1713
1129,1645
1130,1591
1131,1649
1132,1703
1133,1660
1134,1598
1135,1623
1136,1682
1137,1665
1138,1606
1139,1616
1140,1690
1141,1686
1142,1632
1143,1617
1144,1659
1145,1671
1146,1648
1147,1643
1148,1665
1149,1681
1150,1666
1151,1653
1152,1665
1153,1662
1154,1653
1155,1664
1156,1696
1157,1664
1158,1654
1159,1679
1160,1741
1161,1717
1162,1674
1163,1677
1164,1721
1165,1712
1166,1676
1167,1690
1168,1769
1169,1823
1170,1789
1171,1771
1172,1814
1173,1890
1174,1860
1175,1817
1176,1841
1177,1931
1178,1955
1179,1886
1180,0
1181,1846
1182,1821
1183,1745
1184,1711
1185,1775
1186,1818
1187,1742
1188,1662
1189,1602
1190,1719
1191,1689
1192,1621
1193,1623
1194,1699
1195,1706
1196,1663
1197,1639
1198,1671
1199,1706
1200,1681
1201,1661
1202,1653
1203,1629
1204,1593
1205,1589
1206,1722
1207,1980
1208,2450
1209,3118
1210,4095
1211,4095
1212,4095
1213,3893
1214,3237
1215,2537
1216,1942
1217,1629
1218,1589
1219,1627
1220,1664
1221,0
1222,0
1223,1779
1224,1713
1225,1681
1226,1695
1227,1727
1228,1674
1229,1658
1230,1669
1231,1699
1232,1679
1233,1680
1234,0
1235,1737
1236,1715
1237,1697
1238,1708
1239,1739
1240,1741
1241,1719
1242,1723
1243,1744
1244,1753
1245,1744
1246,1759
1247,1781
1248,1792
1249,1786
1250,1790
1251,1807
1252,1837
1253,1837
1254,1845
1255,1854
1256,1871
1257,1899
1258,1909
1259,1917
1260,1938
1261,1981
1262,2005
1263,1993
1264,0
1265,2064
1266,2074
1267,2064
1268,2092
1269,2161
1270,2167
1271,2144
1272,2160
1273,2247
1274,2272
1275,2224
1276,2217
1277,2254
1278,2201
1279,2128
1280,2086
1281,2096
1282,1995
1283,1873
1284,1808
1285,1779
1286,1691
1287,1601
1288,1535
1289,1523
1290,1491
1291,1456
1292,1407
1293,1383
1294,1387
1295,1386
1296,1339
1297,1311
1298,1381
1299,1402
1300,1353
1301,1334
1302,1391
1303,1379
1304,1343
1305,1347
1306,1392
1307,1358
1308,1342
1309,1353
1310,1378
1311,1377
1312,1361
1313,1360
1314,1374
1315,1406
1316,1417
1317,1386
1318,1362
1319,1395
1320,1386
1321,1350
1322,1357
1323,1413
1324,1426
1325,1379
1326,1360
1327,1424
1328,1407
1329,1357
1330,0
1331,1398
1332,1375
1333,1347
1334,1349
1335,1355
1336,1373
1337,1377
1338,1339
1339,1334
1340,1378
1341,1377
1342,1328
1343,1328
1344,1399
1345,1411
1346,1362
1347,1362
1348,1413
1349,1374
1350,1318
1351,1370
1352,1413
1353,1367
1354,1360
1355,1376
1356,1391
1357,1401
1358,1399
1359,1360
1360,1385
1361,1411
1362,1392
1363,1360
1364,1406
1365,1456
1366,1433
1367,1395
1368,1421
1369,1433
1370,1399
1371,1400
1372,1418
1373,1433
1374,1455
1375,1427
1376,1411
1377,1454
1378,1470
1379,1439
1380,1417
1381,1493
1382,1521
1383,1515
1384,1535
1385,1584
1386,1535
1387,1522
1388,1535
1389,1600
1390,1627
1391,1654
1392,1662
1393,1586
1394,1648
1395,1602
1396,1535
1397,1522
1398,1578
1399,1590
1400,1522
1401,1503
1402,1563
1403,1511
1404,1488
1405,1481
1406,1477
1407,1491
1408,1488
1409,1459
1410,1503
1411,1567
1412,1534
1413,1513
1414,1535
1415,1557
1416,1499
1417,1471
1418,1456
1419,1458
1420,1594
1421,1946
1422,2467
1423,3126
1424,0
1425,4095
1426,3885
1427,3323
1428,2709
1429,2160
1430,1723
1431,1535
1432,1535
1433,1535
1434,1553
1435,1629
1436,1664
1437,1637
1438,1634
1439,1650
1440,1633
1441,1616
1442,1625
1443,1627
1444,1651
1445,1680
1446,1657
1447,1648
1448,1693
1449,1699
1450,1678
1451,1681
1452,1754
1453,1757
1454,1722
1455,1754
1456,1792
1457,1763
1458,1758
1459,1770
1460,1794
1461,1809
1462,1826
1463,1815
1464,1856
1465,1914
1466,0
1467,1911
1468,1943
1469,1954
1470,1946
1471,1964
1472,1988
1473,2059
1474,2103
1475,2084
1476,2086
1477,2155
1478,2153
1479,2164
1480,2198
1481,2231
1482,2254
1483,2256
1484,2269
1485,2334
1486,2381
1487,2371
1488,2366
1489,2384
1490,2407
1491,2398
1492,2349
1493,2306
1494,2302
1495,2243
1496,2151
1497,2094
1498,2071
1499,1990
1500,0
1501,1882
1502,1852
1503,1787
1504,1752
1505,1719
1506,1718
1507,1737
1508,1690
1509,1645
1510,1692
1511,1702
1512,1669
1513,1670
1514,1679
1515,1681
1516,1693
1517,1679
1518,1700
1519,1744
1520,1747
1521,1744
1522,1774
1523,1773
1524,1767
1525,1773
1526,1750
1527,1790
1528,1819
1529,1781
1530,1763
1531,1831
1532,1809
1533,1787
1534,1786
1535,1791
1536,1813
1537,1808
1538,1777
1539,1792
1540,1842
1541,1826
1542,1791
1543,1808
1544,1831
1545,1797
1546,0
1547,1818
1548,1817
1549,1827
1550,1809
1551,1790
1552,1815
1553,1845
1554,1835
1555,1825
1556,1874
1557,1840
1558,0
1559,1824
1560,1829
1561,1854
1562,1859
1563,1819
1564,1845
1565,1904
1566,1886
1567,1863
1568,1872
1569,1875
1570,1878
1571,1870
1572,1856
1573,1910
1574,1926
1575,0
1576,0
1577,1939
1578,1902
1579,1885
1580,1877
1581,0
1582,1897
1583,1898
1584,1882
1585,1924
1586,1970
1587,1955
1588,1935
1589,1968
1590,1985
1591,1950
1592,1973
1593,2002
1594,2036
1595,2064
1596,2032
1597,2009
1598,2075
1599,2106
1600,2102
1601,2140
1602,2205
1603,2183
1604,2137
1605,2119
1606,2116
1607,2036
1608,2013
1609,2021
1610,2000
1611,1994
1612,1968
1613,1933
1614,1938
1615,2000
1616,1995
1617,1939
1618,1942
1619,1966
1620,1949
1621,1950
1622,1977
1623,1995
1624,1948
1625,1951
1626,1951
1627,1931
1628,1903
1629,1887
1630,1968
1631,2288
1632,2826
1633,3607
1634,4095
1635,4095
1636,4095
1637,4095
1638,3806
1639,2928
1640,2310
1641,1946
1642,1805
1643,1830
1644,1957
1645,2000
1646,1985
1647,2005
1648,2031
1649,1984
1650,1972
1651,1975
1652,1991
1653,1992
1654,1984
1655,1974
1656,2016
1657,2046
1658,2021
1659,2023
1660,2071
1661,2045
1662,2029
1663,2017
1664,2030
1665,2058
1666,2064
1667,2063
1668,2098
1669,2153
1670,2119
1671,2115
1672,2127
1673,2131
1674,2149
1675,2155
1676,2134
1677,2178
1678,2218
1679,2203
1680,2208
1681,2265
1682,2256
1683,2261
1684,2287
1685,2315
1686,2330
1687,2333
1688,2349
1689,2403
1690,2451
1691,2448
1692,2470
1693,2501
1694,2521
1695,2547
1696,2545
1697,2549
1698,2608
1699,2611
1700,2593
1701,2590
1702,2559
1703,2486
1704,2432
1705,2371
1706,2320
1707,2239
1708,2155
1709,2078
1710,2043
1711,2038
1712,1981
1713,1919
1714,1902
1715,1853
1716,1803
1717,1785
1718,1778
1719,1777
1720,1775
1721,1744
1722,1741
1723,1766
1724,1780
1725,0
1726,1776
1727,1786
1728,1764
1729,1754
1730,1744
1731,1766
1732,1812
1733,1793
1734,1776
1735,1817
1736,1802
1737,1783
1738,1785
1739,1795
1740,1845
1741,1836
1742,1803
1743,1818
1744,1834
1745,1795
1746,1787
1747,1776
1748,1808
1749,1822
1750,1787
1751,1791
1752,1839
1753,1790
1754,1769
1755,1776
1756,1783
1757,1787
1758,1781
1759,1755
1760,1763
1761,1802
1762,1785
1763,1759
1764,1808
1765,1815
1766,1773
1767,1762
1768,1781
1769,1789
1770,1782
1771,1761
1772,1735
1773,1790
1774,1821
1775,0
1776,0
1777,1815
1778,1759
1779,1744
1780,1754
1781,1764
1782,1765
1783,1757
1784,1739
1785,1776
1786,1813
1787,1794
1788,1783
1789,1808
1790,1788
1791,0
1792,1767
1793,1764
1794,1783
1795,1782
1796,1754
1797,1755
1798,1799
1799,1812
1800,1782
1801,1798
1802,1840
1803,1787
1804,1765
1805,1774
1806,1795
1807,1808
1808,1808
1809,1777
1810,1781
1811,1803
1812,1790
1813,1767
1814,1808
1815,1894
1816,1914
1817,1882
1818,1885
1819,1937
1820,1949
1821,1911
1822,1908
1823,1970
1824,2014
1825,1982
1826,1936
1827,1938
1828,1904
1829,1853
1830,1842
1831,1897
1832,1886
1833,1814
1834,1770
1835,1809
1836,1789
1837,1746
1838,1747
1839,1761
1840,1776
1841,1786
1842,1759
1843,1748
1844,1792
1845,1795
1846,0
1847,1786
1848,1815
1849,1740
1850,1683
1851,1665
1852,1771
1853,2055
1854,2496
1855,3065
1856,4015
1857,4095
1858,4095
1859,4095
1860,3600
1861,2784
1862,0
1863,1723
1864,1594
1865,1634
1866,1733
1867,1777
1868,1806
1869,1872
1870,1872
1871,1771
1872,1777
1873,1813
1874,1776
1875,1767
1876,1782
1877,1791
1878,0
1879,1808
1880,1776
1881,1799
1882,1841
1883,0
1884,0
1885,1857
1886,1849
1887,1759
1888,1831
1889,1847
1890,1872
1891,1865
1892,1850
1893,1891
1894,1946
1895,1931
1896,1918
1897,1922
1898,1946
1899,1953
1900,1953
1901,1969
1902,2055
1903,2047
1904,2064
1905,2096
1906,2112
1907,2134
1908,2146
1909,2146
1910,2197
1911,2224
1912,2223
1913,2256
1914,2301
1915,2327
1916,2361
1917,2349
1918,2363
1919,2407
1920,2416
1921,2410
1922,2430
1923,2437
1924,2380
1925,2325
1926,2272
1927,2243
1928,2142
1929,2054
1930,1970
1931,1966
1932,1897
1933,0
1934,1765
1935,1719
1936,1681
1937,1648
1938,1584
1939,1568
1940,1616
1941,1600
1942,1535
1943,1556
1944,1568
1945,1509
1946,1494
1947,1495
1948,1535
1949,1565
1950,1525
1951,1513
1952,1569
1953,1535
1954,1535
1955,1555
1956,1569
1957,1590
1958,1583
1959,1535
1960,1584
1961,1650
1962,1631
1963,1615
1964,1639
1965,1620
1966,1600
1967,1585
1968,1581
1969,1584
1970,1521
1971,1531
1972,1575
1973,1638
1974,1652
1975,0
1976,0
1977,1645
1978,1596
1979,1579
1980,1600
1981,1615
1982,1609
1983,1601
1984,1573
1985,0
1986,1587
1987,1571
1988,1578
1989,1594
1990,1600
1991,1584
1992,1606
1993,1664
1994,1664
1995,1600
1996,1603
1997,1615
1998,1616
1999,1601
2000,1599
2001,1586
2002,1630
2003,1657
2004,1635
2005,1616
2006,1674
2007,1667
2008,1632
2009,1638
2010,1662
2011,1648
2012,1648
2013,1635
2014,1633
2015,1648
2016,1641
2017,1628
2018,1641
2019,1689
2020,1690
2021,1664
2022,1693
2023,1726
2024,1667
2025,1648
2026,1667
2027,1682
2028,1686
2029,1693
2030,1655
2031,1650
2032,1647
2033,1649
2034,1648
2035,1687
2036,1735
2037,1724
2038,1687
2039,1722
2040,1755
2041,1726
2042,1728
2043,1767
2044,1795
2045,1789
2046,1824
2047,1856
2048,1854
2049,1850
2050,1861
2051,1857
2052,1876
2053,1923
2054,1959
2055,1925
2056,1872
2057,1807
2058,1776
2059,1754
2060,1790
2061,1837
2062,1805
2063,1744
2064,1744
2065,1795
2066,1787
2067,1735
2068,1745
2069,1781
2070,1744
2071,1728
2072,1776
2073,1809
2074,1747
2075,1735
2076,1769
2077,1801
2078,1732
2079,1681
2080,1652
2081,1706
2082,1838
2083,2179
2084,2721
2085,3543
2086,4095
2087,4095
2088,4095
2089,4061
2090,3255
2091,0
2092,1918
2093,1648
2094,1611
2095,1680
2096,1783
2097,1833
2098,1840
2099,1814
2100,1802
2101,1781
2102,1774
2103,1775
2104,1792
2105,1776
2106,1765
2107,1783
2108,1806
2109,1791
2110,1788
2111,1801
2112,0
2113,1835
2114,1834
2115,1830
2116,1837
2117,1843
2118,1842
2119,1856
2120,1853
2121,1863
2122,1859
2123,1904
2124,1893
2125,1897
2126,1884
2127,1942
2128,2007
2129,1997
2130,1977
2131,2029
2132,2064
2133,2057
2134,2077
2135,2139
2136,2139
2137,2112
2138,2149
2139,2201
2140,2225
2141,2224
2142,2271
2143,2305
2144,2324
2145,0
2146,2355
2147,2356
2148,2378
2149,2368
2150,2371
2151,2371
2152,2418
2153,2359
2154,2320
2155,2268
2156,2247
2157,2208
2158,2131
2159,2029
2160,1955
2161,1863
2162,1795
2163,1733
2164,1706
2165,1682
2166,0
2167,1588
2168,1535
2169,1563
2170,1521
2171,1495
2172,1488
2173,0
2174,1483
2175,1477
2176,1467
2177,1526
2178,1554
2179,1529
2180,1498
2181,1535
2182,1607
2183,1584
2184,1563
2185,1559
2186,1617
2187,1622
2188,1584
2189,1607
2190,1659
2191,1625
2192,1574
2193,1584
2194,1616
2195,1625
2196,1585
2197,1584
2198,1647
2199,1673
2200,1627
2201,1589
2202,1627
2203,1651
2204,1619
2205,1579
2206,1607
2207,1622
2208,1595
2209,1562
2210,0
2211,1626
2212,1613
2213,1576
2214,1584
2215,1610
2216,1585
2217,1564
2218,1579
2219,1615
2220,1586
2221,1574
2222,1570
2223,1616
2224,1616
2225,1604
2226,1584
2227,1614
2228,1616
2229,1621
2230,1602
2231,1615
2232,1651
2233,1631
2234,1647
2235,1639
2236,1651
2237,1665
2238,1662
2239,1663
2240,1650
2241,1665
2242,1657
2243,1675
2244,1679
2245,0
2246,1649
2247,1680
2248,1713
2249,1659
2250,1650
2251,1695
2252,1760
2253,1711
2254,1661
2255,1687
2256,1748
2257,1738
2258,1675
2259,1670
2260,1726
2261,1770
2262,1739
2263,1693
2264,1708
2265,1762
2266,1774
2267,1713
2268,1695
2269,1758
2270,1764
2271,1714
2272,0
2273,1753
2274,1765
2275,1728
2276,1690
2277,1729
2278,1745
2279,1766
2280,1775
2281,1810
2282,1870
2283,1879
2284,1841
2285,1831
2286,1867
2287,1895
2288,1904
2289,1936
2290,1936
2291,1907
2292,1863
2293,1837
2294,1810
2295,1787
2296,1794
2297,1808
2298,1807
2299,1733
2300,0
2301,0
2302,1823
2303,1775
2304,1714
2305,1719
2306,1767
2307,1751
2308,1711
2309,1691
2310,1751
2311,1810
2312,1773
2313,1712
2314,1705
2315,1712
2316,1695
2317,1783
2318,0
2319,0
2320,3441
2321,4095
2322,4095
2323,4095
2324,3958
2325,3131
2326,2426
2327,1923
2328,1687
2329,1634
2330,1665
2331,1773
2332,1842
2333,1839
2334,1791
2335,0
2336,1814
2337,1794
2338,1732
2339,1739
2340,1791
2341,1786
2342,1734
2343,1722
2344,1791
2345,1779
2346,1749
2347,1747
2348,1811
2349,1805
2350,1797
2351,1791
2352,1840
2353,1822
2354,1830
2355,1839
2356,1872
2357,1891
2358,1902
2359,1906
2360,1931
2361,1951
2362,1965
2363,1974
2364,1990
2365,2002
2366,0
2367,2047
2368,2074
2369,2081
2370,2059
2371,2091
2372,2169
2373,2243
2374,2197
2375,2167
2376,2245
2377,2352
2378,2353
2379,2304
2380,2305
2381,2395
2382,2454
2383,2421
2384,2384
2385,0
2386,2455
2387,2452
2388,2396
2389,2385
2390,2414
2391,2352
2392,2225
2393,2160
2394,2148
2395,2083
2396,1956
2397,1867
2398,1861
2399,1820
2400,1713
2401,1648
2402,1670
2403,1674
2404,1610
2405,1555
2406,1598
2407,1638
2408,1588
2409,1521
2410,1564
2411,1616
2412,1593
2413,1554
2414,1579
2415,1645
2416,1611
2417,1568
2418,1602
2419,1658
2420,1620
2421,1564
2422,1634
2423,1702
2424,1649
2425,1600
2426,1636
2427,1701
2428,1655
2429,1621
2430,1647
2431,1702
2432,1665
2433,1622
2434,1639
2435,1693
2436,1678
2437,1645
2438,1659
2439,1678
2440,1670
2441,1650
2442,1648
2443,1655
2444,1669
2445,1679
2446,1664
2447,1647
2448,1664
2449,1635
2450,1617
2451,1616
2452,1665
2453,1639
2454,1616
2455,1604
2456,1661
2457,1651
2458,1609
2459,1601
2460,1664
2461,1675
2462,1635
2463,1634
2464,1681
2465,1722
2466,1683
2467,1650
2468,1680
2469,1711
2470,1664
2471,1648
2472,1669
2473,1726
2474,1715
2475,1684
2476,1685
2477,1713
2478,1715
2479,1713
2480,1718
2481,1776
2482,1749
2483,1715
2484,1745
2485,1797
2486,1770
2487,1709
2488,1737
2489,1802
2490,1805
2491,1730
2492,0
2493,1742
2494,1766
2495,1683
2496,1667
2497,1742
2498,1840
2499,1753
2500,1700
2501,1757
2502,1857
2503,1809
2504,1727
2505,1741
2506,1845
2507,1862
2508,1767
2509,1732
2510,1800
2511,1872
2512,0
2513,1823
2514,1872
2515,1899
2516,1791
2517,1787
2518,1869
2519,1947
2520,1968
2521,0
2522,1991
2523,1968
2524,1842
2525,0
2526,0
2527,1920
2528,1895
2529,1788
2530,1739
2531,1780
2532,1749
2533,1702
2534,1695
2535,1745
2536,1776
2537,1732
2538,1717
2539,1758
2540,1781
2541,1763
2542,1761
2543,1790
2544,1772
2545,1726
2546,1675
2547,1747
2548,1869
2549,2018
2550,0
2551,3045
2552,4095
2553,4095
2554,4095
2555,4095
2556,3536
2557,2752
2558,2127
2559,1738
2560,1679
2561,1733
2562,1758
2563,1811
2564,1871
2565,1873
2566,1810
2567,1786
2568,1806
2569,1808
2570,1765
2571,1764
2572,1815
2573,1859
2574,1777
2575,0
2576,0
2577,1915
2578,1856
2579,1782
2580,1825
2581,1937
2582,1927
2583,1835
2584,1815
2585,1905
2586,1943
2587,1896
2588,1849
2589,1889
2590,1959
2591,1910
2592,1875
2593,1927
2594,2000
2595,1969
2596,1962
2597,2011
2598,2065
2599,2046
2600,2041
2601,2096
2602,2178
2603,2135
2604,2101
2605,2176
2606,2304
2607,2307
2608,2222
2609,2231
2610,2331
2611,2341
2612,2310
2613,2300
2614,2368
2615,2409
2616,2329
2617,2330
2618,2405
2619,2451
2620,2401
2621,2355
2622,2329
2623,2299
2624,2198
2625,2096
2626,2064
2627,2067
2628,1923
2629,1799
2630,1801
2631,1872
2632,1802
2633,1643
2634,1588
2635,1643
2636,1671
2637,1596
2638,1516
2639,1535
2640,1577
2641,1489
2642,1492
2643,1572
2644,1617
2645,1599
2646,1578
2647,1613
2648,1663
2649,1584
2650,1555
2651,1643
2652,1744
2653,1680
2654,1586
2655,1593
2656,0
2657,1745
2658,1655
2659,1606
2660,1674
2661,1706
2662,1651
2663,1611
2664,1651
2665,1692
2666,1623
2667,1609
2668,1666
2669,1701
2670,1673
2671,1651
2672,1686
2673,1731
2674,1637
2675,1579
2676,1642
2677,1749
2678,1744
2679,1648
2680,1604
2681,1669
2682,1657
2683,1600
2684,1607
2685,1674
2686,1687
2687,1647
2688,1658
2689,1724
2690,1727
2691,1620
2692,0
2693,0
2694,1829
2695,1749
2696,1633
2697,1638
2698,1731
2699,1617
2700,1589
2701,1634
2702,1713
2703,1699
2704,1671
2705,1727
2706,1835
2707,1815
2708,1707
2709,1648
2710,0
2711,1713
2712,0
2713,1651
2714,1731
2715,1757
2716,1685
2717,1696
2718,1799
2719,1875
2720,1802
2721,1694
2722,1697
2723,1779
2724,1686
2725,1651
2726,1686
2727,1761
2728,1743
2729,1687
2730,1749
2731,1843
2732,1829
2733,1743
2734,1695
2735,1751
2736,1773
2737,1718
2738,1743
2739,1854
2740,1894
2741,1813
2742,0
2743,0
2744,0
2745,1843
2746,1799
2747,1855
2748,1946
2749,1953
2750,1950
2751,1965
2752,1998
2753,1903
2754,1776
2755,1767
2756,1842
2757,1791
2758,1687
2759,1675
2760,1755
2761,1794
2762,1747
2763,1762
2764,1833
2765,1856
2766,1758
2767,1678
2768,1715
2769,1777
2770,1712
2771,1719
2772,1776
2773,1839
2774,1714
2775,1600
2776,0
2777,1879
2778,2165
2779,2551
2780,3168
2781,4095
2782,4095
2783,4095
2784,3892
2785,3206
2786,2519
2787,1983
2788,1725
2789,1744
2790,1779
2791,1701
2792,1647
2793,1712
2794,1790
2795,1789
2796,1783
2797,1837
2798,1903
2799,1815
2800,1715
2801,1734
2802,0
2803,1772
2804,1715
2805,1745
2806,1843
2807,1835
2808,0
2809,0
2810,0
2811,1959
2812,1877
2813,1809
2814,1851
2815,1872
2816,1839
2817,1847
2818,1937
2819,0
2820,1935
2821,1888
2822,1919
2823,1972
2824,1947
2825,1936
2826,2032
2827,0
2828,2124
2829,2065
2830,2027
2831,2086
2832,2111
2833,2111
2834,2179
2835,2288
2836,2323
2837,2253
2838,2193
2839,2256
2840,2331
2841,2332
2842,2337
2843,2407
2844,2453
2845,2366
2846,2309
2847,2373
2848,2428
2849,2379
2850,2291
2851,2242
2852,0
2853,2160
2854,2046
2855,2000
2856,2011
2857,1910
2858,1774
2859,1744
2860,0
2861,1748
2862,1671
2863,1587
2864,1610
2865,1622
2866,1584
2867,1589
2868,0
2869,1726
2870,1636
2871,1520
2872,1523
2873,1616
2874,1572
2875,1535
2876,1597
2877,1681
2878,1623
2879,1535
2880,1558
2881,1659
2882,1615
2883,1535
2884,1572
2885,1666
2886,1675
2887,1609
2888,1631
2889,1722
2890,1727
2891,1649
2892,1605
2893,1640
2894,1680
2895,1660
2896,1653
2897,1728
2898,1791
2899,1753
2900,1664
2901,1619
2902,1653
2903,1649
2904,1627
2905,1695
2906,1777
2907,1765
2908,1662
2909,1602
2910,1655
2911,1649
2912,1563
2913,1584
2914,1674
2915,1699
2916,1632
2917,1616
2918,1703
2919,1765
2920,1714
2921,1636
2922,1631
2923,1671
2924,1677
2925,1658
2926,1710
2927,1778
2928,1747
2929,1648
2930,1610
2931,1674
2932,1681
2933,1637
2934,1674
2935,1773
2936,1776
2937,1674
2938,1625
2939,1680
2940,1719
2941,1616
2942,1618
2943,1712
2944,1767
2945,1693
2946,1654
2947,1727
2948,1809
2949,1744
2950,1679
2951,1680
2952,1733
2953,1735
2954,1709
2955,1751
2956,1843
2957,1840
2958,1741
2959,1678
2960,1714
2961,1741
2962,1703
2963,1728
2964,1837
2965,1894
2966,1814
2967,1793
2968,1872
2969,1907
2970,1885
2971,1837
2972,1861
2973,1926
2974,1934
2975,1895
2976,1902
2977,1931
2978,1861
2979,1759
2980,1731
2981,1799
2982,1771
2983,1682
2984,1709
2985,1804
2986,1801
2987,1694
2988,1658
2989,1727
2990,1746
2991,1650
2992,1645
2993,1712
2994,1770
2995,1729
2996,1713
2997,1792
2998,1846
2999,1776
3000,1641
3001,1631
3002,1844
3003,2210
3004,0
3005,3486
3006,4095
3007,4095
3008,4095
3009,3760
3010,3066
3011,0
3012,1819
3013,1577
3014,1629
3015,1741
3016,1729
3017,0
3018,1795
3019,0
3020,1717
3021,1684
3022,1727
3023,1825
3024,1776
3025,1714
3026,1744
3027,1837
3028,1783
3029,1725
3030,1759
3031,1838
3032,1827
3033,1775
3034,1814
3035,1909
3036,1908
3037,1841
3038,1791
3039,1838
3040,1893
3041,1871
3042,1885
3043,1980
3044,2019
3045,1973
3046,1903
3047,1904
3048,1978
3049,1988
3050,1985
3051,2035
3052,2123
3053,2084
3054,0
3055,2040
3056,2160
3057,2163
3058,2109
3059,2126
3060,2224
3061,2267
3062,2239
3063,2288
3064,2394
3065,2448
3066,2403
3067,2339
3068,2373
3069,2432
3070,2429
3071,2427
3072,2481
3073,2526
3074,2440
3075,2302
3076,2225
3077,2195
3078,2144
3079,2053
3080,2023
3081,2043
3082,1968
3083,1802
3084,1674
3085,1647
3086,1647
3087,1573
3088,1575
3089,1729
3090,1664
3091,1579
3092,1472
3093,1472
3094,1522
3095,1511
3096,1520
3097,1591
3098,1665
3099,1609
3100,1503
3101,1489
3102,1575
3103,1509
3104,1475
3105,1535
3106,1661
3107,1643
3108,1535
3109,1526
3110,1597
3111,1633
3112,1581
3113,1615
3114,1710
3115,1744
3116,1650
3117,1577
3118,1611
3119,1680
3120,1594
3121,1569
3122,0
3123,1701
3124,1638
3125,1589
3126,1662
3127,1747
3128,1726
3129,1645
3130,1592
3131,1621
3132,1651
3133,1641
3134,1674
3135,1744
3136,1743
3137,1633
3138,1569
3139,1616
3140,1654
3141,1555
3142,1535
3143,1627
3144,1691
3145,1674
3146,1582
3147,1675
3148,1754
3149,1723
3150,1629
3151,1606
3152,1680
3153,1659
3154,1616
3155,1652
3156,1727
3157,1694
3158,0
3159,1653
3160,1753
3161,1786
3162,1707
3163,1630
3164,1646
3165,1683
3166,1666
3167,0
3168,1773
3169,1813
3170,1743
3171,0
3172,1680
3173,1728
3174,1693
3175,1657
3176,1714
3177,0
3178,1664
3179,1616
3180,1667
3181,1775
3182,1766
3183,1680
3184,1688
3185,1776
3186,1741
3187,1701
3188,1646
3189,1762
3190,1805
3191,1729
3192,1687
3193,1747
3194,1821
3195,1712
3196,1685
3197,1758
3198,1856
3199,1804
3200,1728
3201,1729
3202,1803
3203,1774
3204,1745
3205,1822
3206,1965
3207,1986
3208,1887
3209,1821
3210,1872
3211,1904
3212,1835
3213,1877
3214,2000
3215,2058
3216,1925
3217,1808
3218,1808
3219,1863
3220,0
3221,1799
3222,0
3223,1890
3224,1830
3225,1727
3226,1690
3227,1744
3228,1761
3229,1737
3230,1770
3231,0
3232,1840
3233,1757
3234,1693
3235,1738
3236,1763
3237,0
3238,0
3239,1797
3240,1778
3241,1712
3242,1762
3243,2061
3244,2551
3245,3135
3246,4003
3247,4095
3248,4095
3249,4065
3250,3363
3251,2704
3252,2194
3253,1808
3254,1625
3255,1619
3256,1755
3257,1799
3258,1767
3259,1762
3260,1818
3261,1838
3262,0
3263,0
3264,1855
3265,1873
3266,1809
3267,1737
3268,1750
3269,1797
3270,1746
3271,1735
3272,1781
3273,1883
3274,1793
3275,1757
3276,1829
3277,1949
3278,1961
3279,1863
3280,1814
3281,1863
3282,1899
3283,0
3284,1922
3285,2015
3286,2030
3287,1946
3288,1904
3289,1968
3290,2014
3291,1962
3292,1935
3293,2016
3294,2132
3295,2043
3296,2046
3297,2134
3298,2254
3299,2243
3300,2176
3301,2174
3302,2254
3303,2285
3304,2288
3305,2377
3306,2474
3307,2481
3308,2416
3309,2367
3310,2410
3311,2447
3312,0
3313,2413
3314,2458
3315,2439
3316,2285
3317,2197
3318,2207
3319,2221
3320,2093
3321,1926
3322,1854
3323,1826
3324,1760
3325,1670
3326,1666
3327,1711
3328,0
3329,0
3330,1594
3331,1650
3332,1595
3333,1482
3334,1473
3335,1584
3336,1648
3337,1571
3338,1486
3339,1520
3340,1535
3341,1482
3342,1456
3343,1516
3344,1599
3345,1581
3346,1535
3347,1607
3348,1667
3349,1524
3350,1479
3351,1585
3352,1728
3353,0
3354,1651
3355,0
3356,1648
3357,1639
3358,1572
3359,1535
3360,1601
3361,1614
3362,1555
3363,1535
3364,1616
3365,1658
3366,0
3367,0
3368,1633
3369,1699
3370,1663
3371,1627
3372,1682
3373,1717
3374,1565
3375,1535
3376,1627
3377,1732
3378,1687
3379,1614
3380,1620
3381,1717
3382,1763
3383,1696
3384,1643
3385,0
3386,1722
3387,1674
3388,1615
3389,1646
3390,1681
3391,1621
3392,1571
3393,1613
3394,1665
3395,1623
3396,1584
3397,1641
3398,0
3399,1716
3400,1664
3401,1705
3402,1771
3403,1713
3404,1637
3405,1680
3406,1771
3407,1706
3408,1591
3409,0
3410,1769
3411,1838
3412,1770
3413,1689
3414,1713
3415,1767
3416,1712
3417,1654
3418,1674
3419,1737
3420,1695
3421,1648
3422,1677
3423,1734
3424,1703
3425,1661
3426,1687
3427,1766
3428,0
3429,1722
3430,1759
3431,1839
3432,1781
3433,1677
3434,1722
3435,1835
3436,1867
3437,1797
3438,1746
3439,1791
3440,1840
3441,1776
3442,1712
3443,1744
3444,1781
3445,1735
3446,1708
3447,1761
3448,1846
3449,1811
3450,1770
3451,1822
3452,1893
3453,0
3454,1761
3455,1850
3456,1990
3457,2035
3458,1952
3459,1856
3460,1894
3461,1920
3462,1894
3463,1901
3464,1959
3465,1958
3466,1872
3467,1812
3468,1847
3469,1919
3470,1850
3471,1808
3472,1858
3473,1914
3474,1790
3475,1713
3476,0
3477,0
3478,1886
3479,1808
3480,1754
3481,1808
3482,1808
3483,1744
3484,1709
3485,1773
3486,1777
3487,1703
3488,1667
3489,1710
3490,1731
3491,1763
3492,1975
3493,2448
3494,3162
3495,4054
3496,4095
3497,4095
3498,4095
3499,3659
3500,2823
3501,2206
3502,0
3503,1733
3504,1682
3505,1711
3506,1817
3507,1837
3508,1782
3509,1773
3510,1813
3511,1840
3512,1784
3513,0
3514,1850
3515,1877
3516,1773
3517,1754
3518,1828
3519,1928
3520,1899
3521,1821
3522,1806
3523,1856
3524,1819
3525,1775
3526,1802
3527,1872
3528,1894
3529,1862
3530,1898
3531,1968
3532,1929
3533,1849
3534,1914
3535,2033
3536,2028
3537,1914
3538,0
3539,2029
3540,2117
3541,2085
3542,2034
3543,2070
3544,2158
3545,2126
3546,2071
3547,2101
3548,2187
3549,2169
3550,2149
3551,2199
3552,2294
3553,2306
3554,2285
3555,2320
3556,2407
3557,0
3558,0
3559,2453
3560,2521
3561,2518
3562,2391
3563,2389
3564,2477
3565,2442
3566,0
3567,0
3568,2192
3569,2209
3570,2106
3571,1951
3572,1860
3573,1871
3574,1802
3575,1687
3576,1619
3577,1671
3578,1634
3579,1535
3580,1495
3581,1570
3582,1567
3583,1492
3584,1455
3585,1527
3586,1531
3587,1468
3588,1455
3589,1520
3590,1565
3591,1505
3592,1488
3593,1559
3594,1620
3595,1595
3596,1559
3597,1607
3598,0
3599,1627
3600,1584
3601,1632
3602,1701
3603,1619
3604,1535
3605,1603
3606,0
3607,1678
3608,1578
3609,1606
3610,1702
3611,1703
3612,1574
3613,1595
3614,1697
3615,1750
3616,1615
3617,1591
3618,1658
3619,1750
3620,1721
3621,1648
3622,1627
3623,1697
3624,1665
3625,1589
3626,1575
3627,1646
3628,1619
3629,1562
3630,1567
3631,1631
3632,1637
3633,1583
3634,1585
3635,1659
3636,1700
3637,1648
3638,1629
3639,1680
3640,1718
3641,1686
3642,1654
3643,1711
3644,1779
3645,1664
3646,1616
3647,1665
3648,0
3649,1729
3650,1658
3651,1639
3652,1742
3653,1741
3654,1670
3655,1634
3656,1698
3657,1692
3658,1630
3659,1606
3660,1680
3661,1703
3662,1637
3663,1620
3664,1691
3665,1719
3666,1669
3667,0
3668,1724
3669,1773
3670,1742
3671,1687
3672,1731
3673,1794
3674,1762
3675,1706
3676,1744
3677,1829
3678,1755
3679,0
3680,1732
3681,1840
3682,1850
3683,1764
3684,1724
3685,1793
3686,1853
3687,1791
3688,1713
3689,1744
3690,1797
3691,1735
3692,1690
3693,1729
3694,1776
3695,1730
3696,1686
3697,1734
3698,1814
3699,1825
3700,1767
3701,1802
3702,1862
3703,1862
3704,1779
3705,1809
3706,1881
3707,1884
3708,1809
3709,0
3710,1986
3711,1969
3712,1809
3713,1826
3714,1951
3715,1985
3716,1851
3717,1882
3718,0
3719,2035
3720,1921
3721,1834
3722,1847
3723,1947
3724,1936
3725,1848
3726,1782
3727,1819
3728,1781
3729,1712
3730,1703
3731,1770
3732,1795
3733,1741
3734,1741
3735,1798
3736,1847
3737,1807
3738,1779
3739,1819
3740,1872
3741,0
3742,0
3743,1754
3744,1807
3745,1827
3746,2070
3747,2603
3748,3378
3749,3994
3750,0
3751,4095
3752,4095
3753,3265
3754,2492
3755,2026
3756,1839
3757,1762
3758,1711
3759,0
3760,1882
3761,1967
3762,1909
3763,1820
3764,1826
3765,1883
3766,1842
3767,1776
3768,1783
3769,1882
3770,1863
3771,1804
3772,1811
3773,1903
3774,1899
3775,1822
3776,1799
3777,0
3778,1899
3779,1840
3780,1808
3781,1887
3782,1899
3783,1846
3784,1826
3785,1899
3786,1933
3787,1875
3788,1856
3789,1927
3790,1979
3791,1933
3792,1904
3793,1968
3794,2030
3795,1998
3796,0
3797,2045
3798,2127
3799,2124
3800,2096
3801,2144
3802,2227
3803,2258
3804,2224
3805,2256
3806,2351
3807,2395
3808,2352
3809,2379
3810,2460
3811,2500
3812,2427
3813,0
3814,0
3815,2541
3816,2350
3817,2343
3818,2432
3819,2496
3820,2401
3821,2263
3822,2192
3823,2201
3824,2103
3825,1942
3826,1838
3827,1831
3828,1751
3829,1661
3830,1633
3831,1677
3832,1680
3833,1603
3834,1584
3835,1631
3836,1664
3837,1589
3838,1565
3839,1639
3840,1676
3841,1535
3842,1534
3843,1616
3844,1711
3845,0
3846,1600
3847,1591
3848,1678
3849,1659
3850,1591
3851,1574
3852,1648
3853,1631
3854,1569
3855,1570
3856,1648
3857,1662
3858,1602
3859,1603
3860,1680
3861,1727
3862,1669
3863,1662
3864,1714
3865,1737
3866,1590
3867,0
3868,1676
3869,1771
3870,1664
3871,1616
3872,1655
3873,1780
3874,1755
3875,1661
3876,1610
3877,1655
3878,1634
3879,1583
3880,1587
3881,1663
3882,1688
3883,1705
3884,1664
3885,1731
3886,1719
3887,1600
3888,0
3889,0
3890,1781
3891,1685
3892,1635
3893,1671
3894,1767
3895,1754
3896,1680
3897,1665
3898,1733
3899,1695
3900,1627
3901,1616
3902,1698
3903,1679
3904,1615
3905,1612
3906,1698
3907,1718
3908,1659
3909,1658
3910,1723
3911,1779
3912,1718
3913,1686
3914,1744
3915,1788
3916,1689
3917,1669
3918,1745
3919,1839
3920,1718
3921,1675
3922,1757
3923,1839
3924,1714
3925,1648
3926,1710
3927,1825
3928,1847
3929,1775
3930,1731
3931,1806
3932,1832
3933,1758
3934,1687
3935,1727
3936,1742
3937,1682
3938,1675
3939,1758
3940,1823
3941,1787
3942,0
3943,0
3944,0
3945,1691
3946,1659
3947,1744
3948,1890
3949,1907
3950,1828
3951,1802
3952,1872
3953,1875
3954,1822
3955,1801
3956,1863
3957,1873
3958,1840
3959,1870
3960,1966
3961,2015
3962,1936
3963,1885
3964,1920
3965,1914
3966,0
3967,0
3968,1831
3969,1926
3970,1879
3971,1774
3972,1729
3973,1782
3974,1742
3975,1677
3976,1696
3977,1769
3978,1786
3979,1741
3980,0
3981,1840
3982,1777
3983,1643
3984,1690
3985,1821
3986,1871
3987,1776
3988,1764
3989,2032
3990,2522
3991,3104
3992,3899
3993,4095
3994,4095
3995,4012
3996,3242
3997,2637
3998,2192
3999,1771
4000,1594
4001,1664
4002,1825
4003,1861
4004,1787
4005,1730
4006,1776
4007,1798
4008,1744
4009,1744
4010,1808
4011,1839
4012,1759
4013,1766
4014,1857
4015,1872
4016,0
4017,0
4018,1825
4019,1956
4020,1913
4021,1819
4022,1792
4023,1840
4024,1827
4025,1798
4026,1853
4027,1944
4028,1905
4029,0
4030,1908
4031,2028
4032,2065
4033,1993
4034,1927
4035,1971
4036,1999
4037,1947
4038,1941
4039,2025
4040,2115
4041,2096
4042,2098
4043,0
4044,2241
4045,2130
4046,2112
4047,2171
4048,2320
4049,2326
4050,2259
4051,2240
4052,2320
4053,2355
4054,2327
4055,2372
4056,2458
4057,2403
4058,0
4059,2329
4060,2459
4061,2540
4062,2415
4063,2255
4064,2206
4065,2217
4066,2091
4067,1945
4068,1893
4069,1872
4070,1759
4071,1657
4072,1661
4073,1686
4074,1658
4075,1602
4076,1627
4077,1683
4078,0
4079,0
4080,1509
4081,1658
4082,1709
4083,1631
4084,1560
4085,1584
4086,1631
4087,1583
4088,1520
4089,1563
4090,1611
4091,1535
4092,1521
4093,1587
4094,1651
4095,1647
4096,1615
4097,1650
4098,1725
4099,1664
4100,0
4101,1663
4102,1747
4103,1662
4104,1535
4105,1609
4106,1744
4107,1761
4108,1687
4109,1634
4110,1699
4111,1759
4112,1690
4113,1605
4114,1629
4115,1666
4116,1611
4117,1581
4118,1634
4119,1692
4120,1663
4121,0
4122,1685
4123,1755
4124,1633
4125,1563
4126,1639
4127,1757
4128,1763
4129,1680
4130,1646
4131,1701
4132,1727
4133,1664
4134,1613
4135,1662
4136,1676
4137,1616
4138,1599
4139,1667
4140,1718
4141,1680
4142,1660
4143,1706
4144,1773
4145,1722
4146,1663
4147,1707
4148,1779
4149,1713
4150,0
4151,1715
4152,1809
4153,1744
4154,1643
4155,1707
4156,1808
4157,1776
4158,1664
4159,1675
4160,1780
4161,1846
4162,1787
4163,1713
4164,1734
4165,1796
4166,1744
4167,1686
4168,1712
4169,1778
4170,1734
4171,1675
4172,1693
4173,1757
4174,1724
4175,1679
4176,0
4177,1767
4178,1796
4179,1741
4180,1739
4181,1806
4182,1808
4183,1739
4184,1757
4185,1841
4186,1847
4187,1761
4188,1786
4189,1933
4190,1983
4191,1808
4192,1785
4193,1907
4194,1994
4195,1888
4196,1881
4197,1954
4198,2011
4199,1919
4200,1823
4201,1815
4202,1904
4203,1906
4204,1819
4205,1778
4206,1840
4207,1844
4208,1777
4209,1729
4210,1794
4211,1862
4212,1803
4213,1729
4214,1769
4215,1859
4216,1823
4217,1757
4218,0
4219,1840
4220,1786
4221,1713
4222,1697
4223,1762
4224,1815
4225,0
4226,2407
4227,3119
4228,4053
4229,4095
4230,4095
4231,4095
4232,3505
4233,2708
4234,0
4235,1808
4236,1731
4237,1686
4238,1670
4239,1743
4240,1847
4241,1837
4242,1778
4243,1776
4244,1840
4245,1806
4246,1744
4247,1738
4248,1815
4249,1792
4250,1734
4251,1719
4252,1805
4253,1808
4254,1759
4255,1729
4256,1815
4257,1847
4258,1793
4259,1772
4260,1838
4261,1878
4262,1831
4263,1801
4264,1857
4265,1917
4266,1871
4267,1840
4268,1890
4269,1965
4270,1915
4271,1888
4272,1940
4273,2020
4274,2011
4275,1968
4276,2011
4277,2101
4278,2153
4279,2115
4280,2155
4281,2230
4282,2258
4283,2197
4284,2234
4285,2322
4286,2378
4287,2311
4288,2314
4289,2387
4290,2455
4291,2411
4292,2384
4293,2463
4294,2535
4295,2355
4296,0
4297,2394
4298,2439
4299,2257
4300,2127
4301,2118
4302,2154
4303,2091
4304,1964
4305,0
4306,1887
4307,1872
4308,1754
4309,1647
4310,1648
4311,1654
4312,1577
4313,1505
4314,1528
4315,1553
4316,1488
4317,0
4318,1519
4319,1562
4320,1527
4321,1489
4322,1534
4323,1599
4324,1587
4325,1535
4326,1585
4327,1648
4328,1646
4329,1584
4330,1622
4331,1680
4332,1683
4333,0
4334,0
4335,0
4336,1714
4337,1600
4338,1619
4339,1710
4340,1741
4341,1593
4342,1600
4343,0
4344,1749
4345,1627
4346,1594
4347,1680
4348,1745
4349,1641
4350,1581
4351,1664
4352,1751
4353,1616
4354,1519
4355,1616
4356,1749
4357,1613
4358,0
4359,0
4360,0
4361,1678
4362,1511
4363,1591
4364,1730
4365,1767
4366,1595
4367,0
4368,1719
4369,1775
4370,1620
4371,1587
4372,1691
4373,1775
4374,1675
4375,1605
4376,1680
4377,0
4378,1677
4379,1598
4380,1664
4381,1747
4382,1769
4383,0
4384,0
4385,1739
4386,1759
4387,1705
4388,1694
4389,1744
4390,1751
4391,1698
4392,1658
4393,1682
4394,1702
4395,1664
4396,1629
4397,1662
4398,1699
4399,1675
4400,1655
4401,1680
4402,1728
4403,1710
4404,1664
4405,1677
4406,1727
4407,1713
4408,1667
4409,1667
4410,1731
4411,1737
4412,1694
4413,1682
4414,1728
4415,1759
4416,1717
4417,1694
4418,1738
4419,1764
4420,1746
4421,0
4422,1749
4423,1792
4424,1775
4425,1684
4426,1759
4427,1810
4428,1810
4429,1763
4430,1803
4431,0
4432,1872
4433,1680
4434,1843
4435,1972
4436,1941
4437,1766
4438,1806
4439,0
4440,0
4441,0
4442,1939
4443,1985
4444,2018
4445,1951
4446,1853
4447,1815
4448,1872
4449,1846
4450,1781
4451,1745
4452,1776
4453,1747
4454,1705
4455,1696
4456,1753
4457,1746
4458,1701
4459,1710
4460,1766
4461,1794
4462,1754
4463,1743
4464,1857
4465,1814
4466,1756
4467,1712
4468,1730
4469,1811
4470,1870
4471,2159
4472,2723
4473,3611
4474,4095
4475,4095
4476,4095
4477,4091
4478,3290
4479,2483
4480,1926
4481,1680
4482,1682
4483,1712
4484,1783
4485,1881
4486,1910
4487,1808
4488,1793
4489,1854
4490,1877
4491,1733
4492,1725
4493,0
4494,1881
4495,1738
4496,1708
4497,1793
4498,1899
4499,1826
4500,1767
4501,1808
4502,1901
4503,1887
4504,1836
4505,1863
4506,1951
4507,1929
4508,1847
4509,0
4510,1970
4511,1982
4512,1827
4513,1855
4514,1971
4515,2029
4516,1919
4517,0
4518,2003
4519,2087
4520,2071
4521,2023
4522,2055
4523,2105
4524,2110
4525,2092
4526,2128
4527,2194
4528,2199
4529,2181
4530,2222
4531,2305
4532,2315
4533,2293
4534,2318
4535,2393
4536,2417
4537,2383
4538,2378
4539,2436
4540,2478
4541,2417
4542,2365
4543,2352
4544,2375
4545,2291
4546,2176
4547,2103
4548,2103
4549,2012
4550,1901
4551,1815
4552,1823
4553,1798
4554,1692
4555,0
4556,1648
4557,1664
4558,1603
4559,1557
4560,1590
4561,1580
4562,1526
4563,1527
4564,1586
4565,1616
4566,0
4567,0
4568,1575
4569,1659
4570,1489
4571,1450
4572,1561
4573,1661
4574,1574
4575,1506
4576,1587
4577,1664
4578,1670
4579,1601
4580,1606
4581,1643
4582,1667
4583,1615
4584,1610
4585,1647
4586,1664
4587,1619
4588,1610
4589,1645
4590,1670
4591,1633
4592,1600
4593,1643
4594,1666
4595,1645
4596,1609
4597,1629
4598,1665
4599,1665
4600,1625
4601,1655
4602,1703
4603,1648
4604,1577
4605,0
4606,1719
4607,1660
4608,1566
4609,1601
4610,1692
4611,1725
4612,1653
4613,1623
4614,1663
4615,1721
4616,1690
4617,1633
4618,1626
4619,1681
4620,1631
4621,1573
4622,1593
4623,1651
4624,1627
4625,1595
4626,1639
4627,1707
4628,1712
4629,1653
4630,1681
4631,1735
4632,1710
4633,1621
4634,1665
4635,1761
4636,1750
4637,0
4638,1651
4639,1724
4640,1809
4641,1774
4642,1698
4643,1683
4644,1726
4645,1686
4646,1652
4647,1663
4648,1703
4649,1680
4650,1648
4651,1692
4652,1755
4653,1758
4654,1712
4655,1755
4656,1809
4657,1774
4658,1664
4659,1695
4660,0
4661,0
4662,1748
4663,1727
4664,1764
4665,1822
4666,1793
4667,1751
4668,0
4669,1844
4670,1841
4671,1786
4672,1758
4673,1829
4674,1837
4675,1779
4676,1734
4677,1791
4678,1792
4679,1744
4680,1712
4681,1776
4682,1774
4683,1727
4684,1743
4685,1823
4686,1863
4687,1835
4688,1811
4689,1846
4690,1874
4691,1847
4692,1851
4693,1920
4694,1968
4695,1890
4696,1811
4697,1798
4698,1838
4699,1781
4700,1754
4701,1765
4702,1822
4703,1791
4704,1742
4705,1715
4706,1779
4707,1807
4708,1777
4709,1743
4710,1795
4711,0
4712,1836
4713,1781
4714,1807
4715,1870
4716,1849
4717,1778
4718,1753
4719,1785
4720,1739
4721,1777
4722,1994
4723,2473
4724,3089
4725,3990
4726,4095
4727,4095
4728,4095
4729,3659
4730,2898
4731,2322
4732,1873
4733,0
4734,0
4735,1792
4736,1904
4737,1891
4738,1845
4739,1851
4740,1892
4741,1856
4742,1791
4743,1775
4744,1866
4745,1859
4746,1808
4747,1791
4748,1870
4749,1876
4750,0
4751,1812
4752,1890
4753,1911
4754,1855
4755,1846
4756,1905
4757,1907
4758,0
4759,1847
4760,1921
4761,1936
4762,1872
4763,1881
4764,0
4765,1988
4766,0
4767,1904
4768,1995
4769,2044
4770,1878
4771,1889
4772,2036
4773,2160
4774,2059
4775,2005
4776,2103
4777,2227
4778,2157
4779,2099
4780,2183
4781,2329
4782,2341
4783,0
4784,0
4785,2421
4786,2463
4787,2419
4788,2407
4789,2464
4790,2538
4791,2514
4792,2452
4793,0
4794,2459
4795,2390
4796,2288
4797,2217
4798,2207
4799,2094
4800,1971
4801,1895
4802,1872
4803,1778
4804,1680
4805,1647
4806,1655
4807,1630
4808,1561
4809,1535
4810,1583
4811,1579
4812,1506
4813,1493
4814,1530
4815,1535
4816,1504
4817,1478
4818,1514
4819,1535
4820,1520
4821,1493
4822,1530
4823,1578
4824,1582
4825,1535
4826,1587
4827,1645
4828,1623
4829,1561
4830,0
4831,0
4832,1635
4833,1474
4834,1583
4835,1648
4836,1694
4837,1648
4838,0
4839,0
4840,0
4841,1616
4842,1595
4843,1665
4844,1717
4845,1617
4846,1584
4847,1646
4848,0
4849,1616
4850,1535
4851,1642
4852,1728
4853,1649
4854,1535
4855,1600
4856,0
4857,1689
4858,1587
4859,1633
4860,1680
4861,1705
4862,1654
4863,1615
4864,0
4865,1697
4866,1655
4867,1631
4868,1730
4869,1699
4870,1680
4871,1646
4872,1633
4873,1691
4874,1670
4875,1608
4876,1575
4877,1629
4878,1626
4879,1591
4880,1567
4881,1633
4882,1635
4883,1588
4884,1559
4885,1604
4886,1619
4887,1583
4888,1573
4889,1617
4890,1632
4891,1584
4892,1583
4893,1622
4894,1654
4895,1603
4896,1579
4897,1616
4898,1658
4899,1617
4900,1601
4901,1619
4902,1648
4903,1616
4904,1613
4905,1666
4906,1699
4907,1686
4908,1654
4909,1677
4910,1711
4911,1717
4912,1681
4913,1698
4914,1730
4915,1737
4916,0
4917,0
4918,1744
4919,1761
4920,1670
4921,1657
4922,1733
4923,1750
4924,1635
4925,1623
4926,1701
4927,1768
4928,1767
4929,1756
4930,1766
4931,1817
4932,1838
4933,1796
4934,1747
4935,1766
4936,1765
4937,1746
4938,1777
4939,1827
4940,1799
4941,1722
4942,1686
4943,1722
4944,1716
4945,1698
4946,1697
4947,1719
4948,0
4949,1661
4950,1636
4951,1685
4952,1726
4953,1563
4954,1515
4955,1624
4956,1712
4957,1687
4958,1670
4959,1715
4960,1642
4961,1600
4962,1584
4963,1685
4964,1680
4965,1535
4966,1575
4967,1915
4968,2381
4969,2867
4970,3495
4971,4095
4972,4095
4973,3699
4974,2934
4975,2478
4976,2087
4977,1680
4978,1397
4979,1452
4980,1634
4981,1658
4982,1526
4983,1553
4984,1702
4985,1713
4986,1562
4987,1518
4988,1664
4989,1725
4990,1605
4991,1566
4992,1703
4993,1777
4994,1670
4995,0
4996,0
4997,0
4998,0
4999,1569
5000,1642
5001,1789
5002,1829
5003,1676
5004,1712
5005,1791
5006,1764
5007,1633
5008,1648
5009,1787
5010,1799
5011,1661
5012,1649
5013,1823
5014,1901
5015,1776
5016,1727
5017,1881
5018,1986
5019,1894
5020,1840
5021,1978
5022,2119
5023,2062
5024,1921
5025,2026
5026,2222
5027,0
5028,1986
5029,2006
5030,2269
5031,2327
5032,2147
5033,2112
5034,0
5035,2391
5036,2281
5037,2249
5038,2333
5039,2320
5040,2163
5041,2041
5042,2097
5043,2089
5044,1903
5045,1712
5046,0
5047,1741
5048,1665
5049,1566
5050,1503
5051,1520
5052,1497
5053,1462
5054,0
5055,1461
5056,1461
5057,1441
5058,1519
5059,1471
5060,1507
5061,1461
5062,1346
5063,1391
5064,1472
5065,1471
5066,1373
5067,1413
5068,1490
5069,1520
5070,1488
5071,0
5072,1488
5073,1525
5074,1499
5075,1486
5076,1489
5077,1505
5078,1472
5079,1471
5080,1488
5081,1520
5082,1488
5083,1463
5084,1502
5085,1531
5086,1488
5087,1470
5088,1520
5089,1555
5090,1535
5091,1517
5092,1535
5093,1603
5094,1605
5095,1564
5096,1574
5097,1639
5098,1645
5099,1493
5100,1471
5101,1585
5102,1648
5103,1569
5104,1526
5105,1579
5106,1598
5107,1641
5108,1611
5109,1593
5110,0
5111,1644
5112,1624
5113,1609
5114,1610
5115,1616
5116,1583
5117,1579
5118,1599
5119,1605
5120,0
5121,1557
5122,1586
5123,1599
5124,1535
5125,1535
5126,1615
5127,1646
5128,1636
5129,1627
5130,1680
5131,1701
5132,1666
5133,1646
5134,1686
5135,1745
5136,1684
5137,0
5138,0
5139,1715
5140,1725
5141,1574
5142,1615
5143,1728
5144,1749
5145,1607
5146,1635
5147,1723
5148,1791
5149,1774
5150,1775
5151,1806
5152,1870
5153,1886
5154,1859
5155,1844
5156,1871
5157,1902
5158,1908
5159,1935
5160,1963
5161,1947
5162,1875
5163,1826
5164,1809
5165,1840
5166,1820
5167,1794
5168,0
5169,0
5170,1765
5171,1739
5172,1722
5173,1744
5174,1723
5175,1771
5176,1709
5177,1744
5178,1717
5179,1694
5180,1703
5181,1734
5182,1728
5183,1703
5184,1698
5185,1697
5186,1685
5187,1694
5188,1872
5189,2256
5190,2837
5191,3568
5192,4095
5193,4095
5194,4079
5195,3201
5196,2619
5197,2253
5198,0
5199,1695
5200,1600
5201,1671
5202,1732
5203,1739
5204,1725
5205,1751
5206,1776
5207,1727
5208,1683
5209,1709
5210,1766
5211,1749
5212,1710
5213,1719
5214,1778
5215,1803
5216,1761
5217,1778
5218,1826
5219,1870
5220,1826
5221,1837
5222,1880
5223,1926
5224,1826
5225,1887
5226,1904
5227,1965
5228,1947
5229,1938
5230,1953
5231,2003
5232,2026
5233,2014
5234,2029
5235,2082
5236,2103
5237,2069
5238,2064
5239,2098
5240,2133
5241,2123
5242,2142
5243,2206
5244,2278
5245,2257
5246,2258
5247,2288
5248,2346
5249,2333
5250,2346
5251,2383
5252,2474
5253,2508
5254,2499
5255,2512
5256,2559
5257,2533
5258,2480
5259,2493
5260,2510
5261,2419
5262,2260
5263,2251
5264,2262
5265,2191
5266,2003
5267,1968
5268,1991
5269,1954
5270,1801
5271,1751
5272,1797
5273,1827
5274,1737
5275,1697
5276,1730
5277,1756
5278,1635
5279,0
5280,1626
5281,1712
5282,1731
5283,1695
5284,1668
5285,1680
5286,1665
5287,1629
5288,1622
5289,1663
5290,1671
5291,1621
5292,1639
5293,1690
5294,1712
5295,1663
5296,1665
5297,1708
5298,1747
5299,1704
5300,1697
5301,1721
5302,1761
5303,1716
5304,1701
5305,1729
5306,1775
5307,1741
5308,1702
5309,1729
5310,1780
5311,1761
5312,1726
5313,1740
5314,1789
5315,1794
5316,1735
5317,1741
5318,1779
5319,1811
5320,1761
5321,1760
5322,1791
5323,1821
5324,1780
5325,1776
5326,1789
5327,1828
5328,1799
5329,1781
5330,1788
5331,1830
5332,1802
5333,1767
5334,1785
5335,1829
5336,1814
5337,1776
5338,1779
5339,1824
5340,1838
5341,1801
5342,1805
5343,1824
5344,1873
5345,1857
5346,1850
5347,1859
5348,1906
5349,1893
5350,1872
5351,1881
5352,1902
5353,1808
5354,1762
5355,1856
5356,1926
5357,1840
5358,1772
5359,1867
5360,1955
5361,1900
5362,1765
5363,1823
5364,1930
5365,1942
5366,1841
5367,1904
5368,2029
5369,2069
5370,1971
5371,1974
5372,2055
5373,2091
5374,2057
5375,2039
5376,2094
5377,2098
5378,2035
5379,1991
5380,2000
5381,1967
5382,1892
5383,1862
5384,1904
5385,1929
5386,1873
5387,1822
5388,1840
5389,1863
5390,1810
5391,1772
5392,1804
5393,1847
5394,1823
5395,1763
5396,1788
5397,1831
5398,1835
5399,1777
5400,1802
5401,1856
5402,1855
5403,1778
5404,1728
5405,1746
5406,1836
5407,1987
5408,2352
5409,2952
5410,3933
5411,4095
5412,4095
5413,4095
5414,4095
5415,3192
5416,2384
5417,1865
5418,1679
5419,1723
5420,1802
5421,1904
5422,1967
5423,1997
5424,1947
5425,1922
5426,1916
5427,1951
5428,1938
5429,1926
5430,1942
5431,1973
5432,1873
5433,1790
5434,1891
5435,1982
5436,1905
5437,0
5438,0
5439,1983
5440,1959
5441,1783
5442,1862
5443,1995
5444,0
5445,1967
5446,1968
5447,2009
5448,2005
5449,1975
5450,1989
5451,2032
5452,2044
5453,2002
5454,2007
5455,2055
5456,2098
5457,2081
5458,2069
5459,2128
5460,2177
5461,2153
5462,2135
5463,0
5464,2261
5465,2257
5466,2251
5467,2311
5468,0
5469,2402
5470,2363
5471,2401
5472,2450
5473,2490
5474,2448
5475,2467
5476,2483
5477,2509
5478,2466
5479,2429
5480,2402
5481,2368
5482,2311
5483,2213
5484,2139
5485,2096
5486,2001
5487,1906
5488,1872
5489,1855
5490,1806
5491,1728
5492,0
5493,1691
5494,1651
5495,1513
5496,1535
5497,1649
5498,0
5499,1506
5500,1495
5501,1635
5502,1690
5503,1653
5504,1602
5505,1622
5506,1626
5507,1599
5508,1569
5509,1613
5510,1646
5511,1600
5512,1557
5513,1584
5514,1645
5515,1648
5516,1605
5517,1621
5518,1667
5519,1707
5520,1678
5521,1681
5522,1706
5523,1744
5524,1731
5525,1727
5526,1723
5527,1734
5528,1683
5529,1677
5530,1726
5531,1750
5532,1661
5533,1608
5534,1680
5535,1753
5536,1678
5537,0
5538,0
5539,1741
5540,1698
5541,1534
5542,1603
5543,0
5544,0
5545,1558
5546,1569
5547,1728
5548,1759
5549,1600
5550,1585
5551,1705
5552,1751
5553,1609
5554,1562
5555,1687
5556,1770
5557,1698
5558,1650
5559,1695
5560,1744
5561,1762
5562,1728
5563,1709
5564,1722
5565,1695
5566,1645
5567,1666
5568,1698
5569,1696
5570,1639
5571,1653
5572,1694
5573,1698
5574,1648
5575,1657
5576,1702
5577,1716
5578,1664
5579,1655
5580,1707
5581,1738
5582,1693
5583,1663
5584,1706
5585,1743
5586,1718
5587,1688
5588,1718
5589,1755
5590,1735
5591,1703
5592,1717
5593,1755
5594,1742
5595,1690
5596,1701
5597,1751
5598,1766
5599,1717
5600,1721
5601,1767
5602,1777
5603,1759
5604,1765
5605,1826
5606,1853
5607,1850
5608,1859
5609,1914
5610,1927
5611,1897
5612,1867
5613,1921
5614,1968
5615,1967
5616,1949
5617,1966
5618,1977
5619,1926
5620,1824
5621,0
5622,1884
5623,1889
5624,1739
5625,1706
5626,1780
5627,1856
5628,1808
5629,1745
5630,1747
5631,1785
5632,1761
5633,1746
5634,1766
5635,1792
5636,1803
5637,1776
5638,1762
5639,1767
5640,1776
5641,0
5642,1712
5643,1682
5644,1682
5645,1744
5646,2015
5647,2470
5648,3087
5649,3885
5650,4095
5651,4095
5652,4095
5653,3408
5654,2697
5655,2127
5656,1743
5657,1589
5658,1622
5659,1744
5660,1865
5661,1874
5662,1840
5663,1846
5664,0
5665,0
5666,1702
5667,1755
5668,1853
5669,1847
5670,1648
5671,1684
5672,0
5673,1894
5674,1869
5675,1839
5676,1823
5677,1855
5678,1815
5679,1808
5680,1815
5681,1845
5682,1813
5683,1801
5684,1854
5685,1899
5686,1898
5687,1872
5688,1920
5689,1982
5690,1983
5691,1893
5692,1954
5693,2069
5694,2073
5695,1904
5696,1943
5697,2087
5698,2170
5699,2164
5700,2176
5701,2192
5702,2240
5703,2244
5704,2247
5705,2257
5706,2305
5707,2299
5708,2319
5709,2387
5710,2448
5711,2459
5712,2448
5713,0
5714,2603
5715,2525
5716,2387
5717,2404
5718,2449
5719,2437
5720,2304
5721,2207
5722,2170
5723,2096
5724,1989
5725,0
5726,1953
5727,0
5728,1652
5729,1554
5730,1616
5731,1685
5732,1664
5733,1609
5734,1569
5735,1555
5736,1493
5737,1460
5738,0
5739,1569
5740,1571
5741,1535
5742,1579
5743,1631
5744,1591
5745,1394
5746,0
5747,1595
5748,1682
5749,1659
5750,1616
5751,1589
5752,1602
5753,1535
5754,1527
5755,1559
5756,1583
5757,1555
5758,1535
5759,1611
5760,1649
5761,1648
5762,1604
5763,1647
5764,1686
5765,1669
5766,1509
5767,0
5768,1655
5769,1658
5770,1568
5771,1585
5772,1633
5773,1680
5774,1648
5775,1621
5776,1603
5777,1605
5778,1535
5779,1523
5780,1583
5781,1608
5782,1579
5783,1556
5784,1603
5785,1631
5786,1623
5787,1600
5788,1627
5789,1665
5790,1660
5791,1574
5792,0
5793,1693
5794,1698
5795,1515
5796,1535
5797,1667
5798,1701
5799,1637
5800,1622
5801,1664
5802,1723
5803,1699
5804,1661
5805,1648
5806,1677
5807,1613
5808,1594
5809,1621
5810,1648
5811,1638
5812,1629
5813,1678
5814,1720
5815,1712
5816,1575
5817,1636
5818,1754
5819,1744
5820,1559
5821,1584
5822,1712
5823,1767
5824,1682
5825,1676
5826,1749
5827,1783
5828,1733
5829,1711
5830,1739
5831,1846
5832,1751
5833,1725
5834,1722
5835,1758
5836,1758
5837,1727
5838,1719
5839,1735
5840,1717
5841,1679
5842,1695
5843,1727
5844,1710
5845,1661
5846,1695
5847,1753
5848,1747
5849,1707
5850,1712
5851,1770
5852,1782
5853,1773
5854,1760
5855,1795
5856,1807
5857,1791
5858,1759
5859,1808
5860,1840
5861,1826
5862,1780
5863,1871
5864,1957
5865,1934
5866,1785
5867,1820
5868,1931
5869,0
5870,1847
5871,1898
5872,1982
5873,2007
5874,1935
5875,1862
5876,1827
5877,1825
5878,1765
5879,1761
5880,1783
5881,1783
5882,1713
5883,1690
5884,1730
5885,1761
5886,1731
5887,1706
5888,1739
5889,1769
5890,1735
5891,1706
5892,1744
5893,1788
5894,1772
5895,1738
5896,1632
5897,1761
5898,1699
5899,1623
5900,1703
5901,1968
5902,2363
5903,2855
5904,3679
5905,4095
5906,4095
5907,4005
5908,3376
5909,2778
5910,2251
5911,1797
5912,1617
5913,1665
5914,1776
5915,1817
5916,1807
5917,1818
5918,1836
5919,1810
5920,1746
5921,1756
5922,1780
5923,1793
5924,1740
5925,1755
5926,1785
5927,1808
5928,1767
5929,1762
5930,1787
5931,1821
5932,1786
5933,1786
5934,1823
5935,1869
5936,1840
5937,1815
5938,1849
5939,1903
5940,1895
5941,1860
5942,1891
5943,1939
5944,1948
5945,1905
5946,1930
5947,1983
5948,2031
5949,2017
5950,2031
5951,2094
5952,2157
5953,0
5954,2174
5955,2192
5956,2224
5957,2160
5958,2147
5959,0
5960,0
5961,2271
5962,2184
5963,2311
5964,2448
5965,2451
5966,2351
5967,2399
5968,2493
5969,2537
5970,2501
5971,0
5972,0
5973,2457
5974,2351
5975,2288
5976,2259
5977,2208
5978,2078
5979,1995
5980,1943
5981,1931
5982,1847
5983,1762
5984,1714
5985,1713
5986,1663
5987,1607
5988,1588
5989,1605
5990,1605
5991,1570
5992,1572
5993,1589
5994,1626
5995,0
5996,0
5997,1611
5998,1618
5999,1582
6000,1587
6001,0
6002,1662
6003,1606
6004,1586
6005,1650
6006,1689
6007,1569
6008,1495
6009,1614
6010,1711
6011,1665
6012,1579
6013,0
6014,1699
6015,1682
6016,1611
6017,1619
6018,1665
6019,1637
6020,1584
6021,1595
6022,1629
6023,1626
6024,1568
6025,1574
6026,1607
6027,1651
6028,1623
6029,1630
6030,1648
6031,1695
6032,1694
6033,1680
6034,1684
6035,1712
6036,1691
6037,1650
6038,1698
6039,1741
6040,1648
6041,1520
6042,1614
6043,1728
6044,1744
6045,1600
6046,1613
6047,1701
6048,1729
6049,1687
6050,1666
6051,1707
6052,1693
6053,1616
6054,1607
6055,1648
6056,1691
6057,1655
6058,1648
6059,1662
6060,1711
6061,1712
6062,1701
6063,1710
6064,1732
6065,1752
6066,1730
6067,1724
6068,1731
6069,1751
6070,1725
6071,1720
6072,1723
6073,1760
6074,1755
6075,1750
6076,0
6077,1776
6078,1756
6079,1754
6080,1761
6081,1785
6082,0
6083,1742
6084,1761
6085,1803
6086,1713
6087,0
6088,0
6089,1835
6090,1820
6091,1715
6092,1744
6093,1791
6094,0
6095,1773
6096,1769
6097,1791
6098,1783
6099,1733
6100,1743
6101,1779
6102,1777
6103,1746
6104,1734
6105,1761
6106,1776
6107,1723
6108,1712
6109,1744
6110,1792
6111,1767
6112,1746
6113,1766
6114,1808
6115,1827
6116,1822
6117,1845
6118,0
6119,1946
6120,1951
6121,1957
6122,1947
6123,1964
6124,1943
6125,1955
6126,2002
6127,2030
6128,1927
6129,0
6130,1913
6131,1926
6132,1811
6133,1755
6134,1847
6135,1903
6136,1829
6137,1725
6138,1785
6139,1841
6140,1809
6141,1699
6142,1741
6143,1810
6144,1810
6145,1779
6146,1781
6147,1803
6148,1783
6149,1741
6150,1750
6151,1778
6152,1751
6153,1671
6154,1663
6155,1805
6156,2067
6157,2448
6158,3026
6159,3984
6160,4095
6161,4095
6162,3824
6163,3205
6164,2641
6165,2109
6166,1734
6167,1667
6168,1744
6169,1793
6170,1781
6171,1822
6172,1863
6173,1851
6174,1771
6175,1767
6176,1806
6177,1808
6178,1750
6179,1751
6180,1807
6181,1831
6182,1783
6183,1775
6184,1808
6185,1846
6186,1813
6187,1769
6188,1825
6189,1861
6190,1840
6191,1810
6192,1854
6193,1909
6194,1909
6195,1857
6196,1890
6197,1946
6198,1962
6199,1905
6200,1936
6201,1987
6202,2015
6203,1965
6204,1993
6205,2046
6206,2087
6207,2053
6208,2070
6209,2131
6210,2181
6211,2157
6212,2159
6213,2224
6214,2288
6215,2275
6216,2262
6217,2322
6218,2387
6219,2385
6220,2380
6221,2411
6222,2469
6223,2471
6224,2442
6225,2461
6226,2507
6227,2494
6228,2414
6229,2369
6230,2375
6231,2324
6232,2214
6233,0
6234,2103
6235,2039
6236,1941
6237,1869
6238,1853
6239,1823
6240,1766
6241,1712
6242,1714
6243,1731
6244,1697
6245,1637
6246,1648
6247,1687
6248,0
6249,1607
6250,1617
6251,1694
6252,1712
6253,1633
6254,0
6255,1687
6256,1713
6257,1655
6258,1625
6259,1699
6260,0
6261,1629
6262,1535
6263,1663
6264,1755
6265,1716
6266,0
6267,1703
6268,1747
6269,1726
6270,1680
6271,1711
6272,0
6273,1741
6274,1685
6275,1709
6276,1744
6277,1751
6278,0
6279,1659
6280,1729
6281,1758
6282,1691
6283,1661
6284,1711
6285,1742
6286,1674
6287,1609
6288,1674
6289,1744
6290,1633
6291,1489
6292,1619
6293,1766
6294,1710
6295,1473
6296,1587
6297,1711
6298,1767
6299,1703
6300,1683
6301,1721
6302,1707
6303,1658
6304,1653
6305,1687
6306,1683
6307,1617
6308,1618
6309,1662
6310,1712
6311,1677
6312,1665
6313,1685
6314,1727
6315,1719
6316,1689
6317,1699
6318,1729
6319,1758
6320,1733
6321,1743
6322,1762
6323,1789
6324,1770
6325,1763
6326,1765
6327,1810
6328,1763
6329,1776
6330,1781
6331,1808
6332,1803
6333,1783
6334,1793
6335,1821
6336,1818
6337,0
6338,1787
6339,1799
6340,1797
6341,1792
6342,1805
6343,1815
6344,1829
6345,1791
6346,1785
6347,1792
6348,1821
6349,1794
6350,1787
6351,1776
6352,1808
6353,1801
6354,1803
6355,1811
6356,1836
6357,1819
6358,1808
6359,1827
6360,1854
6361,1811
6362,0
6363,1815
6364,1872
6365,1869
6366,1822
6367,1873
6368,0
6369,0
6370,1783
6371,1855
6372,1969
6373,1997
6374,1843
6375,1873
6376,1971
6377,1965
6378,1747
6379,1690
6380,1808
6381,0
6382,1820
6383,1759
6384,1818
6385,1835
6386,1804
6387,1737
6388,1765
6389,1783
6390,1756
6391,1719
6392,1727
6393,1751
6394,1728
6395,1682
6396,1708
6397,1744
6398,1762
6399,1711
6400,1698
6401,1694
6402,1698
6403,1713
6404,1895
6405,2273
6406,2862
6407,3665
6408,0
6409,4095
6410,4095
6411,3410
6412,2737
6413,2324
6414,0
6415,1795
6416,1614
6417,1690
6418,1811
6419,1857
6420,1799
6421,1802
6422,1841
6423,1820
6424,1777
6425,1775
6426,1808
6427,1808
6428,1766
6429,1762
6430,1808
6431,1822
6432,1815
6433,1802
6434,1836
6435,1854
6436,1809
6437,1787
6438,1819
6439,1869
6440,1855
6441,1823
6442,1839
6443,1895
6444,1934
6445,1909
6446,1921
6447,1945
6448,1991
6449,1979
6450,1987
6451,2009
6452,2069
6453,2083
6454,0
6455,2119
6456,2147
6457,1986
6458,1936
6459,2106
6460,2227
6461,2245
6462,2198
6463,2251
6464,2304
6465,2304
6466,2273
6467,2307
6468,2373
6469,2369
6470,2341
6471,2370
6472,2422
6473,2427
6474,2378
6475,2377
6476,2389
6477,2356
6478,2269
6479,2222
6480,2188
6481,2149
6482,2032
6483,1946
6484,1890
6485,1871
6486,1790
6487,1713
6488,1671
6489,1680
6490,1680
6491,1634
6492,1614
6493,0
6494,1623
6495,1588
6496,1581
6497,1589
6498,1615
6499,1584
6500,1573
6501,1583
6502,1627
6503,1614
6504,1602
6505,1607
6506,1646
6507,1633
6508,1616
6509,1616
6510,1647
6511,1628
6512,1615
6513,1625
6514,1653
6515,1660
6516,1635
6517,1622
6518,1639
6519,1660
6520,1641
6521,1647
6522,1648
6523,1668
6524,1648
6525,1647
6526,1648
6527,1691
6528,1692
6529,1681
6530,1687
6531,1691
6532,1578
6533,1531
6534,1648
6535,1723
6536,1678
6537,1599
6538,1607
6539,1633
6540,1585
6541,1535
6542,1573
6543,1621
6544,1664
6545,1651
6546,1646
6547,1676
6548,1703
6549,1657
6550,1661
6551,1698
6552,1696
6553,1535
6554,1526
6555,1651
6556,1713
6557,1675
6558,1619
6559,1651
6560,1675
6561,1630
6562,1591
6563,1621
6564,1661
6565,1640
6566,1600
6567,1630
6568,1680
6569,1733
6570,1712
6571,1722
6572,1759
6573,1719
6574,1527
6575,1577
6576,1712
6577,1773
6578,1728
6579,1698
6580,1718
6581,1712
6582,1652
6583,1639
6584,1685
6585,1723
6586,1679
6587,1660
6588,1691
6589,0
6590,0
6591,1767
6592,1765
6593,1791
6594,1759
6595,1659
6596,1689
6597,1813
6598,1831
6599,1664
6600,0
6601,1777
6602,1813
6603,1761
6604,1725
6605,1745
6606,1747
6607,1693
6608,1698
6609,0
6610,1789
6611,1802
6612,1791
6613,1826
6614,0
6615,0
6616,1687
6617,1792
6618,1909
6619,1925
6620,1855
6621,1829
6622,1866
6623,1906
6624,1895
6625,1937
6626,1984
6627,0
6628,1872
6629,1845
6630,1901
6631,1898
6632,1822
6633,1771
6634,1791
6635,1783
6636,1711
6637,1675
6638,1694
6639,1744
6640,1783
6641,1777
6642,1794
6643,1851
6644,1766
6645,0
6646,0
6647,1793
6648,1823
6649,1764
6650,0
6651,1729
6652,1694
6653,1631
6654,1755
6655,2059
6656,2493
6657,2911
6658,0
6659,4095
6660,4095
6661,3929
6662,3234
6663,2659
6664,2165
6665,1783
6666,1654
6667,1725
6668,1831
6669,1840
6670,0
6671,0
6672,1853
6673,1838
6674,1760
6675,1747
6676,1770
6677,1831
6678,1836
6679,1838
6680,1871
6681,1871
6682,1754
6683,1715
6684,1813
6685,1865
6686,1824
6687,1796
6688,1818
6689,1860
6690,1851
6691,1850
6692,1892
6693,1931
6694,1962
6695,0
6696,0
6697,2011
6698,2017
6699,1913
6700,1917
6701,1983
6702,1981
6703,1923
6704,1953
6705,2002
6706,2126
6707,2119
6708,2138
6709,2190
6710,2219
6711,2114
6712,2045
6713,2178
6714,2293
6715,2316
6716,2293
6717,2312
6718,2352
6719,2347
6720,2327
6721,2380
6722,0
6723,2506
6724,2493
6725,2501
6726,2526
6727,2479
6728,2269
6729,2198
6730,2241
6731,2224
6732,2097
6733,1994
6734,1936
6735,1909
6736,1837
6737,1776
6738,1754
6739,1749
6740,1584
6741,1406
6742,1493
6743,1616
6744,1624
6745,1567
6746,1535
6747,1535
6748,1518
6749,1466
6750,1497
6751,1535
6752,1600
6753,1599
6754,1606
6755,1635
6756,0
6757,1474
6758,1456
6759,1602
6760,1670
6761,1644
6762,1600
6763,1607
6764,1616
6765,1571
6766,1535
6767,1585
6768,1638
6769,1663
6770,1648
6771,1659
6772,1673
6773,1730
6774,1609
6775,1642
6776,1709
6777,1691
6778,1531
6779,1555
6780,1685
6781,0
6782,1671
6783,1626
6784,1659
6785,1648
6786,1573
6787,1556
6788,1593
6789,1649
6790,1666
6791,1663
6792,1687
6793,1732
6794,1622
6795,0
6796,1535
6797,1682
6798,1727
6799,1673
6800,1648
6801,1670
6802,1629
6803,1563
6804,1582
6805,1632
6806,1661
6807,1598
6808,1606
6809,1648
6810,1687
6811,0
6812,1655
6813,1678
6814,1715
6815,1721
6816,0
6817,1711
6818,1763
6819,1744
6820,1692
6821,1729
6822,1773
6823,1723
6824,1526
6825,1578
6826,1729
6827,1768
6828,1694
6829,1663
6830,1699
6831,1711
6832,1641
6833,1641
6834,1685
6835,1739
6836,0
6837,1733
6838,1759
6839,1787
6840,1776
6841,1751
6842,1803
6843,1817
6844,1767
6845,1648
6846,0
6847,1763
6848,1742
6849,1694
6850,1709
6851,1739
6852,1755
6853,1719
6854,1751
6855,1803
6856,1807
6857,1675
6858,1657
6859,1787
6860,1838
6861,1794
6862,1750
6863,1773
6864,1781
6865,1730
6866,1718
6867,1776
6868,1850
6869,1883
6870,1841
6871,1906
6872,1981
6873,1951
6874,1856
6875,1866
6876,1932
6877,1923
6878,1861
6879,1890
6880,1911
6881,1915
6882,1869
6883,1853
6884,1885
6885,1904
6886,1765
6887,1674
6888,1791
6889,1859
6890,1826
6891,1739
6892,1755
6893,1770
6894,1728
6895,1699
6896,1725
6897,1753
6898,1728
6899,1673
6900,1709
6901,0
6902,1773
6903,1680
6904,1733
6905,1723
6906,0
6907,1817
6908,2099
6909,2640
6910,3360
6911,4064
6912,4095
6913,4095
6914,3763
6915,3056
6916,2475
6917,2023
6918,1773
6919,1732
6920,1776
6921,1874
6922,1951
6923,1891
6924,1719
6925,1755
6926,1851
6927,1844
6928,1797
6929,1792
6930,1815
6931,1785
6932,1702
6933,1713
6934,1773
6935,1821
6936,1808
6937,1821
6938,1863
6939,0
6940,1841
6941,1771
6942,1872
6943,1947
6944,1884
6945,1727
6946,1791
6947,1914
6948,1927
6949,1885
6950,1910
6951,1959
6952,1929
6953,1872
6954,1913
6955,1970
6956,2019
6957,2006
6958,2047
6959,2093
6960,2129
6961,2058
6962,2035
6963,2193
6964,2277
6965,2257
6966,2223
6967,2269
6968,2314
6969,2278
6970,2253
6971,2304
6972,2391
6973,2414
6974,2386
6975,2432
6976,2479
6977,2496
6978,2463
6979,2473
6980,2505
6981,2433
6982,2192
6983,2118
6984,2205
6985,2193
6986,2064
6987,1929
6988,1876
6989,1823
6990,1695
6991,1633
6992,1650
6993,1679
6994,0
6995,1605
6996,1647
6997,1663
6998,1615
6999,1463
7000,0
7001,1601
7002,1584
7003,1520
7004,1524
7005,1535
7006,1535
7007,1485
7008,1513
7009,1568
7010,1621
7011,1627
7012,1629
7013,0
7014,1655
7015,1520
7016,1443
7017,1583
7018,1669
7019,1631
7020,1571
7021,1584
7022,1616
7023,1619
7024,1605
7025,1650
7026,1695
7027,1682
7028,1501
7029,1530
7030,1661
7031,1665
7032,1598
7033,1587
7034,1616
7035,1642
7036,1625
7037,1648
7038,1687
7039,1696
7040,1601
7041,1517
7042,1621
7043,1682
7044,1629
7045,1567
7046,1595
7047,1642
7048,1680
7049,1668
7050,1695
7051,1729
7052,1680
7053,1570
7054,1579
7055,1645
7056,1645
7057,1565
7058,1590
7059,1648
7060,1693
7061,1695
7062,1695
7063,1731
7064,1759
7065,1653
7066,1569
7067,1618
7068,1683
7069,1635
7070,1587
7071,1627
7072,1674
7073,1697
7074,0
7075,0
7076,1767
7077,1707
7078,1523
7079,1579
7080,1727
7081,0
7082,1713
7083,1694
7084,1724
7085,1710
7086,1633
7087,1634
7088,1687
7089,1725
7090,1697
7091,1703
7092,1742
7093,1773
7094,1776
7095,1757
7096,1781
7097,1802
7098,1741
7099,0
7100,1687
7101,1796
7102,1811
7103,1765
7104,0
7105,1760
7106,1727
7107,1657
7108,1692
7109,1744
7110,1788
7111,1780
7112,1802
7113,1840
7114,1849
7115,1737
7116,1648
7117,1749
7118,1817
7119,1794
7120,1769
7121,1818
7122,1873
7123,1850
7124,1815
7125,1856
7126,0
7127,1933
7128,1945
7129,1993
7130,2066
7131,2030
7132,1841
7133,1795
7134,1873
7135,1877
7136,1840
7137,1825
7138,1843
7139,1831
7140,1742
7141,1732
7142,0
7143,1811
7144,1790
7145,1765
7146,1830
7147,1857
7148,1808
7149,1712
7150,1757
7151,1823
7152,1792
7153,1722
7154,1729
7155,0
7156,1747
7157,1671
7158,1699
7159,1862
7160,2141
7161,2366
7162,2881
7163,4001
7164,4095
7165,4095
7166,3920
7167,3278
7168,2653
7169,2099
7170,1771
7171,1730
7172,1792
7173,1823
7174,1753
7175,0
7176,1931
7177,1904
7178,1815
7179,1799
7180,1825
7181,1781
7182,1703
7183,1732
7184,1789
7185,1840
7186,1842
7187,1861
7188,1904
7189,0
7190,1769
7191,1691
7192,1818
7193,1911
7194,1887
7195,1851
7196,1875
7197,1909
7198,1855
7199,1811
7200,1873
7201,1934
7202,1943
7203,0
7204,1969
7205,2032
7206,2027
7207,1898
7208,1931
7209,2091
7210,2134
7211,1970
7212,1935
7213,2101
7214,0
7215,2173
7216,2167
7217,2214
7218,2242
7219,2207
7220,2217
7221,2303
7222,0
7223,0
7224,2354
7225,2439
7226,2513
7227,2515
7228,2381
7229,2394
7230,2461
7231,2431
7232,2330
7233,2320
7234,2361
7235,2298
7236,2190
7237,2126
7238,2096
7239,2033
7240,1937
7241,1857
7242,1827
7243,1787
7244,1725
7245,1674
7246,1695
7247,1680
7248,1588
7249,1446
7250,1519
7251,1627
7252,1623
7253,1568
7254,1563
7255,1573
7256,1520
7257,1447
7258,1488
7259,1558
7260,1621
7261,1617
7262,1631
7263,1671
7264,1671
7265,1495
7266,1416
7267,1575
7268,1674
7269,1658
7270,1601
7271,1616
7272,1637
7273,1579
7274,1527
7275,1584
7276,1635
7277,1729
7278,1659
7279,1686
7280,1707
7281,1680
7282,1535
7283,1561
7284,1687
7285,1702
7286,1626
7287,1602
7288,1648
7289,1648
7290,1569
7291,1563
7292,1621
7293,1675
7294,1659
7295,1660
7296,1685
7297,1715
7298,1669
7299,1558
7300,1680
7301,1762
7302,1731
7303,1615
7304,1638
7305,1713
7306,1685
7307,1617
7308,1632
7309,1677
7310,1687
7311,1634
7312,1655
7313,1712
7314,1746
7315,1743
7316,0
7317,1791
7318,1800
7319,1638
7320,1499
7321,1625
7322,1735
7323,1714
7324,1657
7325,1680
7326,1716
7327,1719
7328,1698
7329,1744
7330,1779
7331,1790
7332,1713
7333,1744
7334,1830
7335,1811
7336,1680
7337,1663
7338,1753
7339,1783
7340,1741
7341,1734
7342,1777
7343,1788
7344,1712
7345,1681
7346,1731
7347,1769
7348,1775
7349,1775
7350,1808
7351,1837
7352,1783
7353,1636
7354,1715
7355,1847
7356,1876
7357,1829
7358,1818
7359,1840
7360,1805
7361,1734
7362,1743
7363,1796
7364,1845
7365,1840
7366,1875
7367,0
7368,1984
7369,1904
7370,1834
7371,1924
7372,2010
7373,2022
7374,2000
7375,2013
7376,1990
7377,1894
7378,1797
7379,1834
7380,0
7381,0
7382,1744
7383,1774
7384,1876
7385,1876
7386,1815
7387,1776
7388,1779
7389,1799
7390,1785
7391,1807
7392,1851
7393,1877
7394,1761
7395,1623
7396,1726
7397,1821
7398,1777
7399,1723
7400,1748
7401,1758
7402,1744
7403,1777
7404,2122
7405,2672
7406,3334
7407,4095
7408,4095
7409,4095
7410,3959
7411,0
7412,2639
7413,2251
7414,1961
7415,1733
7416,1677
7417,1761
7418,1810
7419,1769
7420,1772
7421,1839
7422,1874
7423,1838
7424,1797
7425,0
7426,1921
7427,1863
7428,1757
7429,1767
7430,1813
7431,1843
7432,1840
7433,1882
7434,1919
7435,1904
7436,0
7437,1751
7438,1893
7439,1936
7440,1897
7441,1876
7442,1904
7443,1920
7444,1872
7445,1887
7446,1962
7447,2000
7448,1966
7449,1872
7450,1980
7451,2096
7452,2089
7453,2006
7454,2033
7455,0
7456,2083
7457,2027
7458,2081
7459,2161
7460,2167
7461,2115
7462,2159
7463,2235
7464,2294
7465,2309
7466,2351
7467,2406
7468,2434
7469,2337
7470,2267
7471,0
7472,2513
7473,2498
7474,2422
7475,2416
7476,2416
7477,2324
7478,2237
7479,0
7480,2224
7481,2150
7482,1930
7483,1898
7484,1959
7485,1889
7486,1763
7487,1703
7488,1693
7489,1664
7490,1586
7491,1590
7492,1635
7493,1659
7494,1575
7495,1514
7496,1616
7497,0
7498,0
7499,1522
7500,1535
7501,1584
7502,1535
7503,1497
7504,1554
7505,1613
7506,1664
7507,1647
7508,1655
7509,1693
7510,1662
7511,1500
7512,1505
7513,1643
7514,1679
7515,1652
7516,1625
7517,1641
7518,1634
7519,1562
7520,1570
7521,1617
7522,1680
7523,1680
7524,0
7525,1707
7526,1718
7527,1678
7528,1527
7529,1577
7530,1657
7531,1637
7532,1572
7533,1602
7534,1646
7535,1673
7536,1670
7537,1695
7538,1744
7539,1740
7540,1619
7541,1573
7542,1677
7543,1702
7544,1621
7545,1583
7546,1621
7547,1669
7548,1680
7549,1667
7550,1723
7551,1749
7552,1642
7553,1462
7554,1535
7555,1678
7556,1678
7557,1614
7558,1650
7559,1689
7560,1722
7561,1674
7562,1702
7563,1789
7564,1773
7565,1705
7566,1674
7567,1699
7568,1709
7569,1655
7570,1669
7571,1726
7572,1755
7573,1699
7574,1591
7575,0
7576,1789
7577,1771
7578,1710
7579,1714
7580,1735
7581,1750
7582,1745
7583,1793
7584,0
7585,0
7586,1584
7587,1579
7588,1744
7589,0
7590,1776
7591,1731
7592,1749
7593,1751
7594,1677
7595,1665
7596,1717
7597,1775
7598,1780
7599,1777
7600,1829
7601,1855
7602,1795
7603,1663
7604,1702
7605,1776
7606,1735
7607,1670
7608,1702
7609,1745
7610,1754
7611,1712
7612,1751
7613,1819
7614,1867
7615,1886
7616,1925
7617,1979
7618,1977
7619,1776
7620,1677
7621,1833
7622,1955
7623,1948
7624,1919
7625,1910
7626,1875
7627,1809
7628,1759
7629,1808
7630,0
7631,1845
7632,1710
7633,1746
7634,1818
7635,1793
7636,1715
7637,1698
7638,1723
7639,1745
7640,1712
7641,1735
7642,1783
7643,1798
7644,1650
7645,1610
7646,1748
7647,1815
7648,1761
7649,1669
7650,1642
7651,1691
7652,1842
7653,2169
7654,2716
7655,3518
7656,4095
7657,4095
7658,4095
7659,3882
7660,3143
7661,2449
7662,1911
7663,1651
7664,1616
7665,1643
7666,1753
7667,1853
7668,1895
7669,1849
7670,0
7671,1865
7672,1866
7673,1767
7674,1686
7675,1745
7676,1792
7677,1744
7678,1707
7679,1754
7680,1843
7681,1842
7682,1681
7683,1715
7684,1819
7685,1817
7686,1748
7687,1797
7688,1856
7689,1904
7690,1904
7691,1920
7692,1981
7693,1993
7694,1846
7695,1789
7696,1905
7697,1970
7698,1921
7699,1899
7700,0
7701,1997
7702,2023
7703,2043
7704,0
7705,2171
7706,2135
7707,2022
7708,2087
7709,2192
7710,2195
7711,2145
7712,2187
7713,2259
7714,2344
7715,2358
7716,2403
7717,2455
7718,2442
7719,2199
7720,2155
7721,2367
7722,2491
7723,2437
7724,2374
7725,2363
7726,2373
7727,2328
7728,2258
7729,2234
7730,0
7731,2071
7732,1808
7733,1776
7734,1811
7735,1733
7736,1602
7737,1589
7738,1611
7739,1638
7740,1609
7741,1605
7742,1643
7743,0
7744,1441
7745,1386
7746,1486
7747,1530
7748,1467
7749,1456
7750,1517
7751,1562
7752,1584
7753,1569
7754,1633
7755,1654
7756,1616
7757,1506
7758,1533
7759,1599
7760,1564
7761,1495
7762,1535
7763,1616
7764,1659
7765,1638
7766,1649
7767,1733
7768,1712
7769,1629
7770,1584
7771,1625
7772,1648
7773,1610
7774,1616
7775,1680
7776,1717
7777,1673
7778,0
7779,1625
7780,1701
7781,1648
7782,1591
7783,1615
7784,1665
7785,1694
7786,0
7787,1697
7788,1761
7789,1723
7790,1645
7791,1616
7792,1653
7793,1660
7794,1600
7795,1619
7796,1682
7797,1721
7798,1677
7799,1622
7800,1712
7801,1767
7802,1712
7803,1629
7804,0
7805,1715
7806,1665
7807,1613
7808,1663
7809,1707
7810,1732
7811,1700
7812,1749
7813,1808
7814,1797
7815,1677
7816,1654
7817,1715
7818,1723
7819,1653
7820,1675
7821,1747
7822,1783
7823,1654
7824,1567
7825,1702
7826,1779
7827,1733
7828,1689
7829,0
7830,1757
7831,1763
7832,1712
7833,1781
7834,1857
7835,1822
7836,1758
7837,1746
7838,1776
7839,1788
7840,1759
7841,0
7842,1859
7843,1859
7844,1713
7845,1664
7846,1761
7847,1803
7848,1727
7849,1711
7850,1776
7851,1829
7852,1838
7853,0
7854,0
7855,1904
7856,1858
7857,1822
7858,1859
7859,1905
7860,1891
7861,1839
7862,1879
7863,1923
7864,1957
7865,1936
7866,0
7867,2093
7868,2055
7869,1882
7870,1790
7871,1822
7872,1839
7873,1776
7874,1776
7875,1808
7876,1818
7877,1808
7878,1792
7879,1821
7880,1839
7881,1761
7882,1646
7883,1734
7884,1851
7885,1855
7886,1775
7887,1767
7888,1805
7889,1766
7890,0
7891,1698
7892,1727
7893,1726
7894,1725
7895,1862
7896,2201
7897,2688
7898,3175
7899,3917
7900,4095
7901,4095
7902,4011
7903,3280
7904,2642
7905,2113
7906,1789
7907,1696
7908,1806
7909,1927
7910,1942
7911,1818
7912,1808
7913,1843
7914,1809
7915,1731
7916,1754
7917,1805
7918,0
7919,1820
7920,1829
7921,1905
7922,1913
7923,1802
7924,1706
7925,1791
7926,1856
7927,1819
7928,1782
7929,1835
7930,1888
7931,1849
7932,1808
7933,1863
7934,1906
7935,1945
7936,1949
7937,1993
7938,2027
7939,1985
7940,1803
7941,1831
7942,2006
7943,0
7944,2031
7945,2039
7946,2047
7947,2075
7948,2013
7949,2032
7950,2111
7951,2179
7952,2211
7953,2233
7954,2304
7955,2354
7956,2268
7957,2116
7958,2231
7959,2384
7960,2387
7961,2346
7962,2381
7963,2431
7964,2474
7965,2455
7966,2493
7967,2514
7968,2475
7969,2274
7970,0
7971,2254
7972,2237
7973,2122
7974,1993
7975,1948
7976,1893
7977,1770
7978,1695
7979,1711
7980,1712
7981,1711
7982,1477
7983,1533
7984,1635
7985,1621
7986,1559
7987,1535
7988,1569
7989,1520
7990,1449
7991,1490
7992,0
7993,1595
7994,1584
7995,1611
7996,1662
7997,1667
7998,1492
7999,1424
8000,1583
8001,1675
8002,1654
8003,1616
8004,1636
8005,1648
8006,1586
8007,1535
8008,1602
8009,1661
8010,1679
8011,1643
8012,1703
8013,1776
8014,1739
8015,1651
8016,1631
8017,1651
8018,1648
8019,0
8020,1614
8021,1664
8022,1716
8023,1598
8024,1535
8025,1648
8026,1689
8027,1614
8028,1574
8029,1620
8030,1680
8031,1712
8032,1680
8033,1746
8034,1778
8035,1729
8036,1648
8037,1649
8038,1680
8039,1648
8040,1589
8041,1642
8042,1659
8043,1725
8044,1686
8045,1693
8046,1774
8047,1765
8048,1697
8049,1654
8050,1679
8051,1691
8052,1650
8053,1655
8054,1726
8055,1776
8056,1694
8057,1511
8058,1610
8059,1723
8060,1708
8061,1647
8062,1664
8063,1693
8064,1741
8065,1735
8066,0
8067,1835
8068,1807
8069,1729
8070,1697
8071,1712
8072,1728
8073,1683
8074,0
8075,1766
8076,1702
8077,1697
8078,1598
8079,0
8080,1820
8081,1798
8082,1744
8083,1734
8084,1761
8085,1744
8086,1721
8087,1788
8088,1833
8089,1805
8090,1649
8091,1680
8092,1807
8093,1807
8094,1738
8095,1733
8096,1758
8097,1787
8098,1777
8099,0
8100,1873
8101,1891
8102,1793
8103,1730
8104,0
8105,1921
8106,1879
8107,1813
8108,1846
8109,1913
8110,1949
8111,1969
8112,0
8113,2069
8114,1959
8115,1755
8116,1757
8117,1857
8118,1844
8119,1753
8120,1746
8121,1782
8122,1809
8123,1779
8124,1785
8125,1820
8126,0
8127,1757
8128,1687
8129,1790
8130,0
8131,1792
8132,1711
8133,1763
8134,1812
8135,1753
8136,1678
8137,1694
8138,1707
8139,1703
8140,1775
8141,2081
8142,2582
8143,3251
8144,3753
8145,4095
8146,4095
8147,4095
8148,3441
8149,2704
8150,2176
8151,1821
8152,1630
8153,1673
8154,1797
8155,1883
8156,1899
8157,1888
8158,0
8159,1904
8160,1843
8161,1741
8162,1798
8163,1873
8164,1858
8165,1732
8166,1755
8167,1834
8168,1813
8169,1743
8170,1776
8171,1822
8172,1853
8173,1841
8174,1873
8175,1918
8176,0
8177,0
8178,1854
8179,1949
8180,1995
8181,1939
8182,1855
8183,1924
8184,1985
8185,1942
8186,1899
8187,1941
8188,2005
8189,2030
8190,0
8191,2082
8192,2135
8193,2138
8194,1980
8195,2000
8196,2165
8197,2224
8198,2187
8199,2201
8200,2259
8201,2302
8202,2313
8203,2362
8204,2449
8205,2482
8206,2422
8207,2337
8208,2397
8209,2462
8210,2416
8211,2378
8212,2435
8213,2466
8214,2398
8215,0
8216,2133
8217,2235
8218,2176
8219,2017
8220,1939
8221,1898
8222,1872
8223,1777
8224,1742
8225,1789
8226,1742
8227,1612
8228,1533
8229,1555
8230,1598
8231,1501
8232,1345
8233,1455
8234,1584
8235,1570
8236,1504
8237,1566
8238,1622
8239,1615
8240,1395
8241,1431
8242,1586
8243,1615
8244,1535
8245,1574
8246,1673
8247,1682
8248,1522
8249,1488
8250,1612
8251,1655
8252,1578
8253,1563
8254,1630
8255,1689
8256,1633
8257,0
8258,0
8259,1722
8260,1657
8261,1595
8262,1615
8263,1633
8264,1641
8265,1621
8266,1686
8267,1738
8268,1683
8269,1535
8270,1535
8271,1619
8272,1643
8273,1606
8274,1650
8275,0
8276,1730
8277,1635
8278,1584
8279,1607
8280,1632
8281,1627
8282,1635
8283,1721
8284,1735
8285,1633
8286,1535
8287,1587
8288,0
8289,1643
8290,1519
8291,1585
8292,1691
8293,1665
8294,1580
8295,1597
8296,1643
8297,1654
8298,1616
8299,1644
8300,1747
8301,1739
8302,1648
8303,1603
8304,1629
8305,1663
8306,1648
8307,1649
8308,1723
8309,1747
8310,1661
8311,1502
8312,1483
8313,1668
8314,1626
8315,1535
8316,1607
8317,1661
8318,1683
8319,0
8320,1697
8321,1772
8322,1744
8323,1673
8324,1647
8325,1676
8326,1662
8327,1600
8328,1617
8329,1687
8330,1734
8331,1648
8332,0
8333,1648
8334,1718
8335,1680
8336,1632
8337,0
8338,1675
8339,1689
8340,1677
8341,0
8342,1782
8343,1718
8344,1517
8345,1535
8346,1680
8347,1712
8348,1657
8349,1717
8350,0
8351,1818
8352,1664
8353,1604
8354,1776
8355,1867
8356,1840
8357,1808
8358,1806
8359,1777
8360,1735
8361,1729
8362,1793
8363,1823
8364,1740
8365,1604
8366,1605
8367,0
8368,1617
8369,1535
8370,1594
8371,1663
8372,0
8373,1465
8374,1431
8375,1584
8376,1631
8377,1554
8378,1568
8379,1650
8380,0
8381,1488
8382,1341
8383,1445
8384,1600
8385,1731
8386,2062
8387,2662
8388,0
8389,0
8390,4095
8391,3938
8392,3493
8393,2780
8394,2135
8395,1723
8396,1577
8397,1592
8398,1631
8399,1714
8400,1804
8401,1775
8402,1661
8403,1614
8404,1629
8405,1642
8406,1630
8407,1655
8408,1729
8409,0
8410,0
8411,1596
8412,1621
8413,1651
8414,1603
8415,1561
8416,1631
8417,1709
8418,0
8419,1603
8420,1647
8421,1763
8422,1757
8423,1699
8424,1707
8425,1752
8426,1751
8427,1680
8428,1735
8429,1802
8430,1869
8431,1794
8432,1731
8433,1857
8434,1937
8435,1908
8436,1857
8437,1899
8438,1937
8439,1908
8440,1883
8441,1985
8442,2089
8443,2080
8444,1921
8445,1982
8446,2162
8447,2203
8448,2161
8449,2175
8450,2242
8451,2240
8452,2154
8453,2192
8454,2282
8455,2336
8456,2326
8457,2290
8458,2324
8459,2293
8460,2159
8461,2000
8462,1981
8463,1957
8464,1821
8465,1675
8466,1659
8467,1653
8468,1604
8469,1522
8470,1535
8471,1570
8472,1477
8473,1306
8474,0
8475,1455
8476,1477
8477,1412
8478,1391
8479,1422
8480,1424
8481,1361
8482,1381
8483,1478
8484,1518
8485,0
8486,1313
8487,1419
8488,1506
8489,1451
8490,1392
8491,1449
8492,1498
8493,1506
8494,1485
8495,1557
8496,1609
8497,0
8498,1413
8499,1409
8500,1554
8501,1571
8502,1492
8503,1478
8504,1535
8505,1535
8506,1443
8507,1425
8508,1511
8509,1579
8510,1562
8511,1555
8512,1613
8513,1629
8514,1531
8515,1355
8516,1446
8517,1584
8518,1535
8519,1463
8520,1508
8521,0
8522,1595
8523,1583
8524,1622
8525,1679
8526,1661
8527,1522
8528,1487
8529,1583
8530,1596
8531,1491
8532,1491
8533,1597
8534,1648
8535,1623
8536,1597
8537,1679
8538,1719
8539,1655
8540,1560
8541,1603
8542,1650
8543,1594
8544,1519
8545,1598
8546,1667
8547,1687
8548,1635
8549,1679
8550,1771
8551,1744
8552,1620
8553,1599
8554,1691
8555,1703
8556,1600
8557,1595
8558,1676
8559,1723
8560,1700
8561,1679
8562,1767
8563,1810
8564,1753
8565,1693
8566,1737
8567,1776
8568,1695
8569,1615
8570,1669
8571,1739
8572,1729
8573,1653
8574,1705
8575,1776
8576,1799
8577,1760
8578,0
8579,1856
8580,1845
8581,1700
8582,1631
8583,1773
8584,1840
8585,1795
8586,1765
8587,1833
8588,1900
8589,1859
8590,1834
8591,1899
8592,1940
8593,1934
8594,1901
8595,2027
8596,2112
8597,2035
8598,1904
8599,1861
8600,1869
8601,1853
8602,1783
8603,1823
8604,1895
8605,1893
8606,1735
8607,1650
8608,1788
8609,1863
8610,1817
8611,1761
8612,1795
8613,1824
8614,1757
8615,1712
8616,1806
8617,1863
8618,1808
8619,1634
8620,1709
8621,1851
8622,1791
8623,1669
8624,1718
8625,1955
8626,2342
8627,2839
8628,3799
8629,4095
8630,4095
8631,4095
8632,3953
8633,3280
8634,2554
8635,1971
8636,1697
8637,1734
8638,1819
8639,1804
8640,1776
8641,1875
8642,1917
8643,1904
8644,0
8645,0
8646,1965
8647,1894
8648,1693
8649,1717
8650,1863
8651,1898
8652,1835
8653,1839
8654,1902
8655,1920
8656,1855
8657,1879
8658,1968
8659,2000
8660,1840
8661,1702
8662,1861
8663,1996
8664,1959
8665,1918
8666,1987
8667,0
8668,2062
8669,2026
8670,2096
8671,2189
8672,2155
8673,2067
8674,2075
8675,2136
8676,2159
8677,2126
8678,2179
8679,2279
8680,2309
8681,2203
8682,2165
8683,2288
8684,2353
8685,2288
8686,2287
8687,2393
8688,2471
8689,2483
8690,2461
8691,2549
8692,2629
8693,2559
8694,2496
8695,2513
8696,2533
8697,2512
8698,2469
8699,2480
8700,2509
8701,2375
8702,2146
8703,2058
8704,2091
8705,2032
8706,1876
8707,1812
8708,1847
8709,1845
8710,1774
8711,1709
8712,1777
8713,1790
8714,1699
8715,1615
8716,1635
8717,1666
8718,1636
8719,1606
8720,1689
8721,0
8722,0
8723,1493
8724,1507
8725,1669
8726,1697
8727,1616
8728,1616
8729,1714
8730,1763
8731,1687
8732,1648
8733,1759
8734,1803
8735,1734
8736,1696
8737,1742
8738,1770
8739,1746
8740,1744
8741,1834
8742,0
8743,1808
8744,1712
8745,1739
8746,1783
8747,1757
8748,1680
8749,1743
8750,1813
8751,1827
8752,1694
8753,1654
8754,1770
8755,1792
8756,1703
8757,1693
8758,1749
8759,1801
8760,1671
8761,1779
8762,1872
8763,1894
8764,1833
8765,1744
8766,1766
8767,1798
8768,1755
8769,1712
8770,1776
8771,0
8772,0
8773,1637
8774,1683
8775,1829
8776,1840
8777,1755
8778,1755
8779,1803
8780,1843
8781,1806
8782,1782
8783,1871
8784,1894
8785,1794
8786,1740
8787,1785
8788,1840
8789,1839
8790,1791
8791,1859
8792,1929
8793,1891
8794,1765
8795,1773
8796,1840
8797,1825
8798,1765
8799,1821
8800,1881
8801,0
8802,1657
8803,1648
8804,1856
8805,1919
8806,1835
8807,1837
8808,1901
8809,1951
8810,1940
8811,1950
8812,2015
8813,2044
8814,1958
8815,1815
8816,1914
8817,2047
8818,2012
8819,1924
8820,1936
8821,1951
8822,1957
8823,1920
8824,1955
8825,2000
8826,1949
8827,1794
8828,1744
8829,1810
8830,1842
8831,1771
8832,1784
8833,1865
8834,1903
8835,1766
8836,1635
8837,1782
8838,1892
8839,1840
8840,1778
8841,1822
8842,1850
8843,1792
8844,1646
8845,1753
8846,2064
8847,2417
8848,2949
8849,3901
8850,4095
8851,0
8852,4095
8853,4095
8854,3309
8855,2533
8856,2019
8857,1783
8858,1770
8859,1814
8860,1793
8861,1763
8862,0
8863,1958
8864,1872
8865,1799
8866,1829
8867,1867
8868,1870
8869,1808
8870,1877
8871,1963
8872,1920
8873,1847
8874,1855
8875,1794
8876,1914
8877,1893
8878,0
8879,2033
8880,2015
8881,1936
8882,1889
8883,1921
8884,1950
8885,1914
8886,1929
8887,2010
8888,2058
8889,1947
8890,1765
8891,1890
8892,2034
8893,2019
8894,1966
8895,2047
8896,2141
8897,2117
8898,1892
8899,1949
8900,2156
8901,2204
8902,2160
8903,2198
8904,2267
8905,2331
8906,2330
8907,2343
8908,2449
8909,2475
8910,2368
8911,2318
8912,2403
8913,2464
8914,2433
8915,2419
8916,2484
8917,2522
8918,2399
8919,0
8920,0
8921,2318
8922,2232
8923,2091
8924,2039
8925,2006
8926,1973
8927,1891
8928,1875
8929,1919
8930,1850
8931,1667
8932,0
8933,1649
8934,1667
8935,1584
8936,1577
8937,1647
8938,1695
8939,1695
8940,0
8941,1703
8942,1748
8943,1710
8944,1659
8945,1671
8946,1680
8947,1647
8948,1615
8949,1699
8950,1734
8951,1733
8952,1593
8953,1585
8954,1678
8955,1712
8956,1686
8957,0
8958,1806
8959,1819
8960,1675
8961,1535
8962,1654
8963,1727
8964,1673
8965,1635
8966,1711
8967,1739
8968,1727
8969,1613
8970,1686
8971,1781
8972,1734
8973,1659
8974,1680
8975,1701
8976,1726
8977,1725
8978,1763
8979,1831
8980,1794
8981,1685
8982,1635
8983,1683
8984,1701
8985,1649
8986,1680
8987,1693
8988,1792
8989,1677
8990,1478
8991,1601
8992,1730
8993,1699
8994,1630
8995,1680
8996,1740
8997,1751
8998,0
8999,1670
9000,1785
9001,1765
9002,1690
9003,1676
9004,1707
9005,1737
9006,1728
9007,1750
9008,1834
9009,1822
9010,1734
9011,1674
9012,1708
9013,1729
9014,1712
9015,1727
9016,1861
9017,1913
9018,1827
9019,1653
9020,1723
9021,1840
9022,1840
9023,1802
9024,1883
9025,1961
9026,1987
9027,1942
9028,1931
9029,1971
9030,1921
9031,1790
9032,1738
9033,1790
9034,1763
9035,1647
9036,1625
9037,1686
9038,1738
9039,1709
9040,0
9041,1745
9042,1776
9043,1730
9044,1575
9045,1614
9046,1694
9047,1673
9048,0
9049,1679
9050,1738
9051,1695
9052,1424
9053,1426
9054,1730
9055,2091
9056,2543
9057,3238
9058,4095
9059,4095
9060,4095
9061,4095
9062,3543
9063,2735
9064,2058
9065,0
9066,0
9067,1734
9068,1745
9069,1712
9070,1765
9071,1808
9072,1732
9073,1637
9074,1668
9075,1729
9076,1759
9077,1735
9078,1767
9079,0
9080,1802
9081,1636
9082,1595
9083,1765
9084,1857
9085,1722
9086,0
9087,1774
9088,1868
9089,1845
9090,1795
9091,1849
9092,1887
9093,1853
9094,1828
9095,1950
9096,1968
9097,1925
9098,1899
9099,1937
9100,1991
9101,1947
9102,1874
9103,1936
9104,2021
9105,2035
9106,1975
9107,2001
9108,2085
9109,2112
9110,2073
9111,2115
9112,2201
9113,2261
9114,2252
9115,2256
9116,2326
9117,2381
9118,2386
9119,2382
9120,2446
9121,2480
9122,2477
9123,2399
9124,2438
9125,2518
9126,2474
9127,2315
9128,2249
9129,2266
9130,2180
9131,2020
9132,1954
9133,1930
9134,1893
9135,1808
9136,1774
9137,1790
9138,1767
9139,1607
9140,1458
9141,1475
9142,1632
9143,1577
9144,1507
9145,1533
9146,1577
9147,1523
9148,1471
9149,1533
9150,1678
9151,1601
9152,1535
9153,1584
9154,1677
9155,1650
9156,1565
9157,1564
9158,1617
9159,1616
9160,1522
9161,1526
9162,1598
9163,1646
9164,1654
9165,1651
9166,1717
9167,1733
9168,1590
9169,1430
9170,1561
9171,1708
9172,1663
9173,1597
9174,1616
9175,1648
9176,1648
9177,1609
9178,1648
9179,1712
9180,0
9181,1502
9182,1500
9183,1675
9184,1718
9185,1663
9186,1633
9187,1669
9188,1678
9189,1605
9190,1584
9191,1663
9192,1722
9193,1719
9194,1699
9195,1746
9196,1777
9197,1702
9198,1491
9199,0
9200,1716
9201,1728
9202,1680
9203,1691
9204,1722
9205,1678
9206,1589
9207,1617
9208,0
9209,1713
9210,1687
9211,1705
9212,1758
9213,1776
9214,0
9215,1616
9216,1733
9217,1807
9218,1751
9219,0
9220,1695
9221,1787
9222,1776
9223,1762
9224,1819
9225,1849
9226,1786
9227,1718
9228,1789
9229,1872
9230,1927
9231,1943
9232,1983
9233,2013
9234,1977
9235,1732
9236,1602
9237,1730
9238,1814
9239,1793
9240,1742
9241,1744
9242,1733
9243,1659
9244,1614
9245,1665
9246,1712
9247,1711
9248,1681
9249,1680
9250,1777
9251,1748
9252,1584
9253,1593
9254,1707
9255,1703
9256,1627
9257,1623
9258,1627
9259,1600
9260,1640
9261,1879
9262,0
9263,2950
9264,3627
9265,4095
9266,4095
9267,4095
9268,0
9269,3049
9270,2352
9271,1861
9272,1583
9273,1508
9274,1633
9275,1745
9276,1792
9277,1766
9278,1794
9279,1808
9280,1780
9281,1630
9282,1626
9283,1777
9284,1798
9285,1745
9286,1713
9287,1744
9288,1744
9289,1674
9290,1668
9291,1745
9292,1802
9293,1782
9294,0
9295,1819
9296,1899
9297,1854
9298,1776
9299,1799
9300,1840
9301,1840
9302,1827
9303,1891
9304,1892
9305,1945
9306,1713
9307,1691
9308,1881
9309,1971
9310,1923
9311,1943
9312,0
9313,2071
9314,2034
9315,2031
9316,0
9317,2272
9318,2227
9319,2182
9320,2226
9321,2273
9322,2263
9323,2260
9324,2359
9325,0
9326,2396
9327,2177
9328,2219
9329,2416
9330,2448
9331,2382
9332,2368
9333,2352
9334,2320
9335,0
9336,0
9337,2186
9338,2119
9339,1940
9340,1787
9341,1765
9342,1742
9343,1648
9344,1605
9345,1650
9346,1664
9347,1583
9348,1327
9349,1382
9350,1522
9351,1531
9352,1481
9353,1493
9354,1533
9355,1535
9356,1500
9357,1535
9358,1609
9359,1599
9360,0
9361,1183
9362,1514
9363,1639
9364,1605
9365,1555
9366,1571
9367,1590
9368,1584
9369,1585
9370,1660
9371,1683
9372,1607
9373,1374
9374,0
9375,1665
9376,1663
9377,1599
9378,1616
9379,0
9380,1628
9381,1569
9382,1619
9383,1683
9384,0
9385,1639
9386,1651
9387,1734
9388,1744
9389,1532
9390,1402
9391,1565
9392,1681
9393,1642
9394,1593
9395,1638
9396,1663
9397,1633
9398,1601
9399,1671
9400,1708
9401,1669
9402,1587
9403,1651
9404,0
9405,1751
9406,1605
9407,1585
9408,1695
9409,1694
9410,1611
9411,1614
9412,1669
9413,1705
9414,1680
9415,1689
9416,1738
9417,1761
9418,1633
9419,1426
9420,0
9421,1741
9422,1744
9423,1701
9424,1717
9425,1737
9426,1679
9427,1613
9428,1674
9429,0
9430,1744
9431,1734
9432,1775
9433,1834
9434,0
9435,1580
9436,1498
9437,1682
9438,1792
9439,1765
9440,1763
9441,1826
9442,1863
9443,1837
9444,1840
9445,1936
9446,1991
9447,1871
9448,1677
9449,0
9450,1937
9451,1904
9452,1825
9453,1817
9454,1823
9455,1807
9456,1758
9457,1783
9458,1815
9459,0
9460,1621
9461,1598
9462,1747
9463,0
9464,1763
9465,1712
9466,1757
9467,1759
9468,1678
9469,1648
9470,1722
9471,1770
9472,1766
9473,1754
9474,1802
9475,1804
9476,1802
9477,1613
9478,0
9479,2463
9480,3127
9481,4031
9482,4095
9483,4095
9484,4095
9485,3771
9486,2945
9487,2336
9488,1904
9489,1535
9490,1427
9491,1658
9492,1821
9493,1815
9494,1778
9495,1794
9496,1801
9497,1766
9498,1733
9499,1783
9500,1821
9501,1813
9502,0
9503,1819
9504,1893
9505,1846
9506,1700
9507,1717
9508,1841
9509,1849
9510,1769
9511,1779
9512,1840
9513,1799
9514,1866
9515,1905
9516,0
9517,1993
9518,1822
9519,1668
9520,1813
9521,1953
9522,1929
9523,1895
9524,1953
9525,0
9526,0
9527,2021
9528,2095
9529,2183
9530,2163
9531,2032
9532,2053
9533,2167
9534,2182
9535,2133
9536,2180
9537,2272
9538,2329
9539,2325
9540,2371
9541,2471
9542,2487
9543,2327
9544,2164
9545,0
9546,2473
9547,2450
9548,2384
9549,2401
9550,2391
9551,2323
9552,2240
9553,2226
9554,2189
9555,2096
9556,0
9557,1781
9558,1879
9559,1867
9560,1744
9561,1674
9562,1684
9563,1645
9564,1535
9565,1523
9566,1584
9567,1598
9568,1581
9569,1589
9570,1648
9571,1667
9572,1575
9573,1370
9574,1458
9575,1616
9576,1627
9577,1588
9578,1606
9579,1631
9580,1584
9581,1510
9582,1568
9583,1646
9584,1677
9585,1619
9586,1614
9587,1727
9588,1744
9589,1675
9590,1634
9591,1681
9592,1687
9593,1603
9594,1589
9595,1654
9596,1685
9597,1690
9598,1712
9599,1773
9600,0
9601,1714
9602,1568
9603,1609
9604,1695
9605,1680
9606,1599
9607,1660
9608,1731
9609,1746
9610,1680
9611,1677
9612,1807
9613,1791
9614,1734
9615,1685
9616,1712
9617,1712
9618,1623
9619,1616
9620,1698
9621,1829
9622,1726
9623,1606
9624,0
9625,1764
9626,1723
9627,1655
9628,1674
9629,1701
9630,1708
9631,1697
9632,1749
9633,1808
9634,1785
9635,1618
9636,1575
9637,1707
9638,1753
9639,1679
9640,1665
9641,1712
9642,1765
9643,1781
9644,1765
9645,1821
9646,1853
9647,1803
9648,1740
9649,1795
9650,1862
9651,1808
9652,1734
9653,1779
9654,1858
9655,1936
9656,1936
9657,0
9658,2075
9659,2031
9660,1937
9661,1887
9662,1879
9663,1825
9664,1727
9665,1723
9666,0
9667,1763
9668,1669
9669,1486
9670,1625
9671,1744
9672,1712
9673,1667
9674,1707
9675,1732
9676,1712
9677,1693
9678,1772
9679,1813
9680,0
9681,1494
9682,1507
9683,1705
9684,1724
9685,1612
9686,1662
9687,1907
9688,2333
9689,2911
9690,3841
9691,4095
9692,4095
9693,4095
9694,3479
9695,2849
9696,2354
9697,1951
9698,1728
9699,1693
9700,1712
9701,1680
9702,1679
9703,1778
9704,1842
9705,1818
9706,1587
9707,1606
9708,1788
9709,1810
9710,1745
9711,1744
9712,1790
9713,1814
9714,1799
9715,1835
9716,1903
9717,0
9718,1766
9719,1584
9720,1742
9721,1900
9722,1894
9723,1856
9724,1888
9725,1924
9726,1919
9727,1903
9728,1972
9729,2033
9730,1999
9731,1775
9732,1798
9733,1985
9734,2032
9735,1988
9736,2010
9737,2064
9738,2104
9739,2103
9740,2151
9741,2237
9742,2277
9743,2171
9744,2082
9745,2193
9746,2306
9747,2288
9748,2267
9749,2352
9750,2416
9751,2400
9752,2258
9753,2339
9754,2498
9755,2501
9756,2416
9757,2401
9758,2403
9759,0
9760,2323
9761,2288
9762,2305
9763,2219
9764,2045
9765,1927
9766,1878
9767,1825
9768,1812
9769,1787
9770,1818
9771,1791
9772,1680
9773,1589
9774,1597
9775,1616
9776,1626
9777,1580
9778,0
9779,1667
9780,1616
9781,1535
9782,1554
9783,1583
9784,1630
9785,1619
9786,0
9787,1708
9788,1696
9789,1635
9790,1591
9791,1616
9792,1664
9793,0
9794,1635
9795,1727
9796,1755
9797,1671
9798,1611
9799,1658
9800,0
9801,1723
9802,1559
9803,1600
9804,1719
9805,1699
9806,1623
9807,1666
9808,1722
9809,1729
9810,1570
9811,1526
9812,1680
9813,1741
9814,1669
9815,1661
9816,1710
9817,1757
9818,1627
9819,1471
9820,1581
9821,1703
9822,1691
9823,1685
9824,1775
9825,1825
9826,0
9827,1681
9828,1686
9829,1710
9830,1716
9831,1718
9832,1781
9833,0
9834,1782
9835,1674
9836,1669
9837,1719
9838,1745
9839,1600
9840,1530
9841,1686
9842,1773
9843,1712
9844,1698
9845,1768
9846,1813
9847,1735
9848,1572
9849,1651
9850,1773
9851,1750
9852,1705
9853,1762
9854,1828
9855,1808
9856,1633
9857,1623
9858,1744
9859,1785
9860,1750
9861,1787
9862,1875
9863,1890
9864,1823
9865,1779
9866,1835
9867,1884
9868,1888
9869,0
9870,0
9871,2003
9872,1943
9873,1902
9874,1948
9875,1995
9876,1989
9877,1858
9878,1885
9879,1943
9880,1876
9881,1776
9882,1791
9883,1833
9884,0
9885,1637
9886,1613
9887,1737
9888,1761
9889,1671
9890,1689
9891,1776
9892,1796
9893,1731
9894,1648
9895,1685
9896,1721
9897,1717
9898,0
9899,1803
9900,1827
9901,1706
9902,1566
9903,1614
9904,1815
9905,2197
9906,2661
9907,3472
9908,4095
9909,4095
9910,4095
9911,3965
9912,3199
9913,2490
9914,1772
9915,1395
9916,1459
9917,1616
9918,1701
9919,0
9920,0
9921,1872
9922,1761
9923,1667
9924,1680
9925,1715
9926,1733
9927,1632
9928,1681
9929,1774
9930,1727
9931,1648
9932,1717
9933,1811
9934,1822
9935,1719
9936,1679
9937,1765
9938,1807
9939,1793
9940,1798
9941,1901
9942,1904
9943,1804
9944,1765
9945,1829
9946,1881
9947,1952
9948,0
9949,1905
9950,2013
9951,1942
9952,1870
9953,1939
9954,2032
9955,0
9956,1904
9957,1947
9958,2055
9959,2109
9960,2120
9961,2197
9962,2309
9963,2314
9964,2261
9965,2254
9966,2291
9967,2330
9968,2311
9969,2285
9970,2414
9971,2477
9972,2382
9973,2323
9974,2403
9975,2450
9976,2368
9977,2183
9978,2144
9979,2139
9980,0
9981,1951
9982,1957
9983,1968
9984,1877
9985,1728
9986,1655
9987,1644
9988,1616
9989,1570
9990,1590
9991,1670
9992,1648
9993,1522
9994,1467
9995,1497
9996,1493
9997,1487
9998,1413
9999,1510
10000,1585
10001,1498
10002,0
10003,1503
10004,1579
10005,1587
10006,1471
10007,1478
10008,1535
10009,1535
10010,1493
10011,1563
10012,1663
10013,1680
10014,1535
10015,1503
10016,1583
10017,1614
10018,1611
10019,1619
10020,1721
10021,1725
10022,1596
10023,1531
10024,1600
10025,1662
10026,1619
10027,1423
10028,1482
10029,1623
10030,1641
10031,1616
10032,1690
10033,1769
10034,1725
10035,1627
10036,1609
10037,1647
10038,1647
10039,1646
10040,1684
10041,1773
10042,1744
10043,1648
10044,1598
10045,1635
10046,1555
10047,1623
10048,1633
10049,1729
10050,1766
10051,1697
10052,1600
10053,1616
10054,1652
10055,1655
10056,1652
10057,0
10058,1798
10059,1725
10060,1619
10061,1631
10062,1683
10063,1712
10064,1594
10065,0
10066,1646
10067,1713
10068,1634
10069,1631
10070,1715
10071,1775
10072,1677
10073,1504
10074,1603
10075,1710
10076,1697
10077,1664
10078,1754
10079,1823
10080,1765
10081,1569
10082,1587
10083,1716
10084,1740
10085,1686
10086,1744
10087,1823
10088,1829
10089,1692
10090,1635
10091,1742
10092,1776
10093,1691
10094,1673
10095,1763
10096,1826
10097,1795
10098,1743
10099,1831
10100,1899
10101,1835
10102,1738
10103,1765
10104,1808
10105,1776
10106,1749
10107,1844
10108,1936
10109,1958
10110,1827
10111,1803
10112,1951
10113,1981
10114,1917
10115,1923
10116,1972
10117,1978
10118,1924
10119,1903
10120,1953
10121,1948
10122,1840
10123,1675
10124,1771
10125,1867
10126,1797
10127,1722
10128,1759
10129,1801
10130,1776
10131,1738
10132,1808
10133,0
10134,1842
10135,1648
10136,1628
10137,1784
10138,1823
10139,1735
10140,1744
10141,1792
10142,1791
10143,1734
10144,1777
10145,2006
10146,2342
10147,2739
10148,3347
10149,4095
10150,4095
10151,4095
10152,4095
10153,3549
10154,2762
10155,0
10156,1447
10157,1422
10158,1705
10159,1823
10160,1790
10161,1822
10162,1873
10163,1879
10164,1690
10165,1575
10166,1744
10167,1837
10168,1759
10169,1744
10170,1821
10171,0
10172,0
10173,1641
10174,1776
10175,1930
10176,1890
10177,1842
10178,1882
10179,1905
10180,1872
10181,1827
10182,1905
10183,1984
10184,1962
10185,1840
10186,1878
10187,2022
10188,2065
10189,1982
10190,1953
10191,2023
10192,2032
10193,1948
10194,1970
10195,2111
10196,2177
10197,2061
10198,1923
10199,2101
10200,2253
10201,2219
10202,2165
10203,2257
10204,2349
10205,2345
10206,2235
10207,2320
10208,2489
10209,2489
10210,2407
10211,2429
10212,2506
10213,0
10214,2511
10215,2527
10216,2608
10217,0
10218,2448
10219,2336
10220,2302
10221,2235
10222,2075
10223,1950
10224,1968
10225,1941
10226,1854
10227,1744
10228,1776
10229,1807
10230,1707
10231,1610
10232,1614
10233,1627
10234,1563
10235,1482
10236,1535
10237,1659
10238,1661
10239,1461
10240,1405
10241,1534
10242,1575
10243,1488
10244,1498
10245,1610
10246,1667
10247,1535
10248,1387
10249,1485
10250,1599
10251,1568
10252,1529
10253,1639
10254,1723
10255,1663
10256,1523
10257,1562
10258,1639
10259,1641
10260,1602
10261,1664
10262,0
10263,1733
10264,1621
10265,1607
10266,1664
10267,1674
10268,1627
10269,0
10270,1710
10271,1753
10272,1621
10273,1569
10274,1669
10275,0
10276,1664
10277,1534
10278,1599
10279,1648
10280,1633
10281,1611
10282,1703
10283,1802
10284,1680
10285,1517
10286,1582
10287,1706
10288,1701
10289,1612
10290,1617
10291,1773
10292,1752
10293,1616
10294,1600
10295,1687
10296,0
10297,1664
10298,1683
10299,1823
10300,1840
10301,1712
10302,1593
10303,1664
10304,0
10305,1654
10306,1585
10307,1711
10308,1821
10309,0
10310,1491
10311,1499
10312,1712
10313,1735
10314,1617
10315,1655
10316,0
10317,1766
10318,1711
10319,1733
10320,1870
10321,1876
10322,1751
10323,1704
10324,1775
10325,1789
10326,1697
10327,1665
10328,1803
10329,1871
10330,1791
10331,1600
10332,1658
10333,1786
10334,1750
10335,1654
10336,1761
10337,1919
10338,1937
10339,1791
10340,1756
10341,1887
10342,1915
10343,1792
10344,1795
10345,1936
10346,2000
10347,1937
10348,1826
10349,1913
10350,1968
10351,1849
10352,1780
10353,1843
10354,1876
10355,1787
10356,1686
10357,1781
10358,1868
10359,0
10360,1563
10361,1586
10362,1791
10363,1799
10364,1692
10365,1699
10366,1802
10367,1814
10368,1729
10369,1744
10370,1872
10371,0
10372,0
10373,1531
10374,1654
10375,1833
10376,1926
10377,2228
10378,2854
10379,3831
10380,4095
10381,4095
10382,4095
10383,4095
10384,0
10385,2481
10386,1911
10387,1701
10388,1635
10389,1631
10390,1786
10391,1961
10392,1958
10393,1767
10394,1616
10395,1744
10396,1821
10397,1712
10398,1669
10399,1792
10400,1863
10401,1799
10402,1646
10403,1753
10404,1904
10405,1826
10406,1727
10407,1798
10408,1879
10409,1873
10410,1807
10411,1858
10412,2005
10413,1975
10414,1849
10415,0
10416,1938
10417,1949
10418,1907
10419,0
10420,2085
10421,2112
10422,1991
10423,1941
10424,2029
10425,2077
10426,2032
10427,2017
10428,2173
10429,2274
10430,0
10431,2098
10432,2159
10433,2258
10434,2265
10435,2225
10436,2329
10437,2498
10438,2487
10439,2384
10440,2372
10441,2466
10442,2497
10443,2451
10444,0
10445,2544
10446,2559
10447,2384
10448,2269
10449,2323
10450,2336
10451,0
10452,1831
10453,1849
10454,1939
10455,1882
10456,1779
10457,1817
10458,1868
10459,1744
10460,1563
10461,1535
10462,1611
10463,1582
10464,1488
10465,0
10466,1664
10467,1646
10468,1507
10469,1449
10470,1515
10471,1561
10472,1526
10473,1497
10474,1629
10475,1686
10476,1535
10477,1424
10478,1499
10479,1577
10480,0
10481,1520
10482,1595
10483,1707
10484,1639
10485,1505
10486,1523
10487,1603
10488,1609
10489,1553
10490,1594
10491,1738
10492,1712
10493,1562
10494,1520
10495,0
10496,1652
10497,1617
10498,1571
10499,0
10500,1776
10501,1640
10502,1530
10503,1599
10504,1678
10505,1653
10506,0
10507,0
10508,1696
10509,1658
10510,1521
10511,1570
10512,1685
10513,1693
10514,0
10515,1438
10516,1629
10517,1703
10518,1587
10519,1535
10520,1669
10521,1722
10522,1631
10523,1440
10524,1600
10525,1759
10526,1680
10527,1573
10528,1649
10529,1713
10530,1703
10531,1626
10532,1701
10533,1807
10534,1743
10535,1623
10536,1648
10537,1731
10538,1739
10539,1683
10540,1697
10541,1836
10542,1837
10543,1695
10544,1653
10545,1744
10546,1762
10547,1702
10548,1693
10549,0
10550,1869
10551,1771
10552,1676
10553,1754
10554,1841
10555,1811
10556,1765
10557,1862
10558,1969
10559,1927
10560,1734
10561,1718
10562,1872
10563,1936
10564,1857
10565,1856
10566,1936
10567,1927
10568,1777
10569,1648
10570,1745
10571,1797
10572,1733
10573,1712
10574,1837
10575,1894
10576,1771
10577,1648
10578,1687
10579,1744
10580,1711
10581,1666
10582,1759
10583,1872
10584,1819
10585,1707
10586,1699
10587,1783
10588,1761
10589,1625
10590,1618
10591,1772
10592,0
10593,2128
10594,2466
10595,3302
10596,4095
10597,4095
10598,4095
10599,0
10600,3431
10601,2621
10602,1806
10603,0
10604,1693
10605,1687
10606,1635
10607,1758
10608,1891
10609,1871
10610,1634
10611,1600
10612,1803
10613,1830
10614,1702
10615,1693
10616,1804
10617,0
10618,1743
10619,1600
10620,1758
10621,1886
10622,1815
10623,1744
10624,1827
10625,1887
10626,1839
10627,1711
10628,1819
10629,1975
10630,1920
10631,1803
10632,1858
10633,1967
10634,1978
10635,1923
10636,1965
10637,2112
10638,2097
10639,1967
10640,1952
10641,2047
10642,2080
10643,2064
10644,2045
10645,2197
10646,2268
10647,2160
10648,2096
10649,2197
10650,2274
10651,2275
10652,0
10653,2384
10654,2513
10655,2458
10656,2300
10657,2321
10658,2459
10659,2469
10660,0
10661,2397
10662,2499
10663,2490
10664,0
10665,2097
10666,2240
10667,2270
10668,2090
10669,1957
10670,1984
10671,0
10672,0
10673,1626
10674,1701
10675,1798
10676,1665
10677,1499
10678,1569
10679,0
10680,1595
10681,1435
10682,1459
10683,1643
10684,1615
10685,1486
10686,1488
10687,1571
10688,1585
10689,1533
10690,1582
10691,0
10692,1711
10693,1579
10694,1469
10695,1571
10696,1629
10697,1535
10698,1498
10699,1632
10700,1710
10701,1654
10702,1445
10703,1518
10704,1703
10705,1666
10706,1535
10707,1602
10708,1693
10709,1687
10710,1633
10711,0
10712,1808
10713,1776
10714,1664
10715,1618
10716,1695
10717,1706
10718,1618
10719,0
10720,1749
10721,1797
10722,1709
10723,1529
10724,1616
10725,1716
10726,1644
10727,0
10728,1664
10729,1776
10730,1710
10731,1439
10732,0
10733,1646
10734,1691
10735,1593
10736,1630
10737,1745
10738,1759
10739,0
10740,1497
10741,1729
10742,1775
10743,1670
10744,1613
10745,1712
10746,0
10747,0
10748,1680
10749,1776
10750,1854
10751,1734
10752,1686
10753,1685
10754,1757
10755,1756
10756,1715
10757,1776
10758,0
10759,1844
10760,1724
10761,1705
10762,1772
10763,1767
10764,1718
10765,1747
10766,1882
10767,1904
10768,1773
10769,1684
10770,1744
10771,1783
10772,1744
10773,1738
10774,1856
10775,1925
10776,1824
10777,1677
10778,1717
10779,1798
10780,1759
10781,1664
10782,1750
10783,1873
10784,1872
10785,1650
10786,1535
10787,1744
10788,1808
10789,1713
10790,1728
10791,1871
10792,1936
10793,1882
10794,1799
10795,1930
10796,2026
10797,1921
10798,1846
10799,1938
10800,2010
10801,1989
10802,1920
10803,1962
10804,2032
10805,1934
10806,1791
10807,1802
10808,1856
10809,1841
10810,1767
10811,1771
10812,0
10813,1894
10814,1750
10815,1692
10816,1763
10817,1791
10818,1742
10819,0
10820,0
10821,1919
10822,1792
10823,1681
10824,1745
10825,1796
10826,0
10827,1573
10828,1629
10829,1915
10830,2183
10831,2528
10832,3294
10833,4095
10834,4095
10835,4095
10836,3739
10837,3315
10838,2672
10839,1973
10840,1631
10841,0
10842,1793
10843,1713
10844,1535
10845,1728
10846,1870
10847,1788
10848,1709
10849,1805
10850,1878
10851,1799
10852,1584
10853,1629
10854,1787
10855,0
10856,1755
10857,1838
10858,1968
10859,1935
10860,1819
10861,1795
10862,1871
10863,1905
10864,1823
10865,1741
10866,1891
10867,1965
10868,1840
10869,0
10870,1927
10871,2027
10872,1936
10873,1727
10874,1823
10875,1989
10876,1982
10877,1910
10878,2014
10879,2147
10880,2127
10881,1955
10882,1964
10883,2130
10884,2198
10885,2151
10886,2220
10887,2383
10888,2405
10889,2294
10890,2261
10891,2355
10892,2400
10893,2366
10894,2382
10895,0
10896,2625
10897,2495
10898,2386
10899,2446
10900,2495
10901,2449
10902,2365
10903,2434
10904,2416
10905,2278
10906,2096
10907,2005
10908,2001
10909,1907
10910,1753
10911,1742
10912,1835
10913,1792
10914,1621
10915,1519
10916,1578
10917,1531
10918,1531
10919,1492
10920,1616
10921,1679
10922,1529
10923,1408
10924,1478
10925,1569
10926,1535
10927,1405
10928,0
10929,1616
10930,1583
10931,1444
10932,1486
10933,1616
10934,1639
10935,1427
10936,1326
10937,1523
10938,1639
10939,1531
10940,1505
10941,1643
10942,0
10943,1600
10944,1422
10945,1533
10946,1650
10947,1579
10948,1535
10949,1668
10950,1770
10951,1680
10952,1535
10953,1582
10954,1655
10955,1633
10956,1557
10957,1591
10958,1757
10959,1747
10960,1600
10961,1557
10962,1646
10963,1658
10964,1572
10965,1569
10966,1712
10967,0
10968,1635
10969,1519
10970,1595
10971,1659
10972,1622
10973,1589
10974,1708
10975,1811
10976,1694
10977,1530
10978,1579
10979,1675
10980,1664
10981,1424
10982,1391
10983,1594
10984,1677
10985,1598
10986,1670
10987,1807
10988,1808
10989,1654
10990,1582
10991,1670
10992,1712
10993,1603
10994,1433
10995,1569
10996,1705
10997,1686
10998,1642
10999,1710
11000,1881
11001,1776
11002,1622
11003,1647
11004,1730
11005,1726
11006,1535
11007,1488
11008,1687
11009,1747
11010,1663
11011,0
11012,1827
11013,1838
11014,1744
11015,1680
11016,1744
11017,1779
11018,1737
11019,1694
11020,1807
11021,1893
11022,1767
11023,1630
11024,1712
11025,1804
11026,1785
11027,1647
11028,1680
11029,1833
11030,1802
11031,1659
11032,1711
11033,1850
11034,1872
11035,1729
11036,1659
11037,1776
11038,1831
11039,1743
11040,1729
11041,1871
11042,1929
11043,1835
11044,1745
11045,1815
11046,1892
11047,0
11048,1855
11049,1967
11050,0
11051,1937
11052,1781
11053,1842
11054,1973
11055,2022
11056,1872
11057,0
11058,1899
11059,1901
11060,1771
11061,1779
11062,1937
11063,1971
11064,1845
11065,1756
11066,1808
11067,1829
11068,1759
11069,1675
11070,1776
11071,1879
11072,1782
11073,1653
11074,1746
11075,1851
11076,1823
11077,1655
11078,1669
11079,1808
11080,1793
11081,1667
11082,1671
11083,1872
11084,2047
11085,2269
11086,2736
11087,3650
11088,4095
11089,4095
11090,4095
11091,4095
11092,3394
11093,2467
11094,1807
11095,1663
11096,1738
11097,1724
11098,1570
11099,0
11100,1869
11101,1852
11102,1727
11103,1787
11104,1906
11105,1893
11106,1715
11107,1647
11108,1803
11109,1840
11110,1786
11111,1811
11112,1962
11113,1986
11114,0
11115,1767
11116,1853
11117,1892
11118,1863
11119,1820
11120,1927
11121,2015
11122,1898
11123,1771
11124,1876
11125,2018
11126,1999
11127,1794
11128,1805
11129,1971
11130,2011
11131,0
11132,1967
11133,2118
11134,2154
11135,2033
11136,1968
11137,2112
11138,2177
11139,2114
11140,2127
11141,2301
11142,2401
11143,2320
11144,2228
11145,2305
11146,2383
11147,2368
11148,2352
11149,2480
11150,2626
11151,2557
11152,2442
11153,2450
11154,2536
11155,2512
11156,2399
11157,2409
11158,2508
11159,2453
11160,2240
11161,2110
11162,2112
11163,2057
11164,1877
11165,1776
11166,1863
11167,1887
11168,1725
11169,1493
11170,1561
11171,1681
11172,1595
11173,1445
11174,1524
11175,1633
11176,1623
11177,1486
11178,1518
11179,1683
11180,1665
11181,1513
11182,1495
11183,1600
11184,1611
11185,1557
11186,1583
11187,1714
11188,1751
11189,1657
11190,1569
11191,1626
11192,1663
11193,1589
11194,0
11195,1680
11196,1776
11197,1694
11198,1458
11199,1499
11200,1653
11201,1667
11202,1588
11203,1650
11204,1781
11205,0
11206,1535
11207,1480
11208,1643
11209,1701
11210,1581
11211,1572
11212,1722
11213,1778
11214,1655
11215,1505
11216,1601
11217,1685
11218,1648
11219,1597
11220,1712
11221,1810
11222,1712
11223,1487
11224,0
11225,1677
11226,1680
11227,1565
11228,1618
11229,1746
11230,1754
11231,1621
11232,1561
11233,1802
11234,1786
11235,1680
11236,1621
11237,1706
11238,1739
11239,1683
11240,1664
11241,1794
11242,1858
11243,0
11244,1600
11245,1664
11246,1761
11247,1712
11248,1617
11249,1712
11250,1830
11251,1805
11252,1597
11253,1570
11254,0
11255,1790
11256,1653
11257,1647
11258,1771
11259,1799
11260,1726
11261,0
11262,0
11263,1869
11264,1762
11265,1678
11266,1751
11267,1785
11268,1755
11269,1714
11270,1817
11271,1913
11272,1831
11273,1610
11274,1615
11275,1780
11276,1792
11277,1674
11278,1728
11279,1849
11280,1863
11281,0
11282,1671
11283,1837
11284,1891
11285,1791
11286,1744
11287,1831
11288,1851
11289,1757
11290,1702
11291,1855
11292,1920
11293,0
11294,1647
11295,1715
11296,1873
11297,1866
11298,1785
11299,1888
11300,2015
11301,1979
11302,1743
11303,1703
11304,0
11305,2021
11306,1901
11307,1856
11308,1945
11309,1938
11310,1778
11311,0
11312,1794
11313,1929
11314,1819
11315,1712
11316,1802
11317,1843
11318,1793
11319,1728
11320,1831
11321,1961
11322,1879
11323,1757
11324,1761
11325,1839
11326,1808
11327,1710
11328,1757
11329,1879
11330,0
11331,1617
11332,1486
11333,1729
11334,2031
11335,2321
11336,2843
11337,3853
11338,4095
11339,4095
11340,4095
11341,3856
11342,3051
11343,2298
11344,1670
11345,1568
11346,1749
11347,0
11348,1641
11349,1712
11350,1834
11351,1851
11352,1792
11353,1837
11354,1937
11355,1927
11356,1730
11357,1616
11358,1763
11359,1840
11360,1738
11361,1694
11362,1838
11363,0
11364,1803
11365,1535
11366,1665
11367,1877
11368,1845
11369,1744
11370,0
11371,1969
11372,1938
11373,1684
11374,1685
11375,1926
11376,1989
11377,1890
11378,1903
11379,2003
11380,2026
11381,1946
11382,1947
11383,2128
11384,2190
11385,2082
11386,2013
11387,2106
11388,2177
11389,2115
11390,2082
11391,2233
11392,2356
11393,2282
11394,2035
11395,2120
11396,2325
11397,2343
11398,2252
11399,2354
11400,2499
11401,0
11402,2336
11403,2313
11404,2501
11405,0
11406,2416
11407,2318
11408,2363
11409,2320
11410,2137
11411,2021
11412,2096
11413,2087
11414,1906
11415,1694
11416,1767
11417,1872
11418,1759
11419,1616
11420,1638
11421,1686
11422,1616
11423,1501
11424,0
11425,1714
11426,1681
11427,1488
11428,1397
11429,1535
11430,1607
11431,1510
11432,1527
11433,1690
11434,1739
11435,1599
11436,1456
11437,1558
11438,1648
11439,1586
11440,1535
11441,1687
11442,1801
11443,1712
11444,1571
11445,1611
11446,1703
11447,1664
11448,1569
11449,1661
11450,1808
11451,1779
11452,1625
11453,1590
11454,1687
11455,1696
11456,1599
11457,1606
11458,1762
11459,1803
11460,1648
11461,1483
11462,1616
11463,1722
11464,1619
11465,1518
11466,1643
11467,1747
11468,1710
11469,1518
11470,0
11471,1764
11472,1725
11473,1569
11474,1594
11475,1694
11476,1712
11477,1567
11478,1509
11479,1709
11480,1765
11481,1614
11482,1562
11483,1697
11484,1753
11485,1647
11486,1426
11487,1570
11488,1758
11489,1695
11490,1584
11491,1681
11492,1776
11493,0
11494,1483
11495,1535
11496,1765
11497,1754
11498,1600
11499,1651
11500,0
11501,1792
11502,1663
11503,1609
11504,0
11505,1837
11506,1697
11507,1648
11508,1745
11509,1794
11510,1752
11511,1723
11512,1844
11513,1901
11514,1771
11515,1529
11516,1621
11517,1803
11518,1761
11519,1650
11520,1747
11521,1874
11522,1847
11523,1581
11524,1535
11525,1775
11526,1840
11527,1718
11528,1739
11529,0
11530,0
11531,1775
11532,1641
11533,1769
11534,1849
11535,1762
11536,0
11537,0
11538,1935
11539,1856
11540,1616
11541,1716
11542,1963
11543,1958
11544,1821
11545,1879
11546,2005
11547,2015
11548,1811
11549,1792
11550,2009
11551,2029
11552,1827
11553,1793
11554,1904
11555,1936
11556,1828
11557,1681
11558,1814
11559,1909
11560,1776
11561,1666
11562,1775
11563,1851
11564,1788
11565,1571
11566,1649
11567,1825
11568,1807
11569,1699
11570,1782
11571,1920
11572,1954
11573,1759
11574,1716
11575,1781
11576,1753
11577,1739
11578,1997
11579,2557
11580,3216
11581,3839
11582,4095
11583,4095
11584,4095
11585,3517
11586,2755
11587,2281
11588,1950
11589,1680
11590,1441
11591,1578
11592,1811
11593,1854
11594,1773
11595,1843
11596,1950
11597,1917
11598,1690
11599,0
11600,1819
11601,1866
11602,1750
11603,1759
11604,1904
11605,1957
11606,1792
11607,1634
11608,1776
11609,1904
11610,1874
11611,1831
11612,1968
11613,2071
11614,1968
11615,1815
11616,1869
11617,1966
11618,1963
11619,1922
11620,0
11621,2144
11622,2096
11623,1915
11624,1923
11625,2082
11626,2129
11627,2032
11628,2002
11629,2118
11630,2160
11631,2121
11632,2046
11633,0
11634,2311
11635,2214
11636,2159
11637,2320
11638,2449
11639,2409
11640,2325
11641,2384
11642,2461
11643,2448
11644,2335
11645,2363
11646,2539
11647,2534
11648,2384
11649,2414
11650,2551
11651,2531
11652,2362
11653,2243
11654,2237
11655,2171
11656,2039
11657,1957
11658,2005
11659,1994
11660,1773
11661,1594
11662,1650
11663,1703
11664,1639
11665,1477
11666,1521
11667,1667
11668,1603
11669,1427
11670,1479
11671,1622
11672,1636
11673,1481
11674,1441
11675,1555
11676,1590
11677,1518
11678,1427
11679,1591
11680,1683
11681,1535
11682,1459
11683,1615
11684,1713
11685,1639
11686,1505
11687,1578
11688,1655
11689,1630
11690,1535
11691,1634
11692,1776
11693,1690
11694,1506
11695,1558
11696,1710
11697,1723
11698,1535
11699,1474
11700,1603
11701,0
11702,0
11703,1619
11704,1755
11705,1774
11706,1589
11707,1493
11708,1637
11709,1730
11710,1647
11711,1461
11712,0
11713,1672
11714,1648
11715,1577
11716,1676
11717,1808
11718,1749
11719,1616
11720,1600
11721,1683
11722,1682
11723,1603
11724,1648
11725,1812
11726,1821
11727,1630
11728,1559
11729,1666
11730,1712
11731,1637
11732,1501
11733,0
11734,1749
11735,1650
11736,1535
11737,1655
11738,1751
11739,1713
11740,1535
11741,1606
11742,1779
11743,1744
11744,1600
11745,1617
11746,1727
11747,0
11748,1657
11749,1618
11750,1794
11751,1831
11752,1701
11753,1645
11754,1738
11755,1775
11756,1699
11757,1680
11758,1832
11759,1922
11760,1825
11761,1680
11762,1744
11763,1835
11764,1777
11765,1671
11766,1770
11767,1905
11768,1861
11769,1623
11770,1588
11771,1783
11772,1831
11773,1701
11774,1710
11775,1844
11776,0
11777,1744
11778,1629
11779,1801
11780,1913
11781,1791
11782,1684
11783,1797
11784,1872
11785,1818
11786,1653
11787,1744
11788,1904
11789,1841
11790,1717
11791,1814
11792,1975
11793,1993
11794,1787
11795,1744
11796,1931
11797,1985
11798,1862
11799,1888
11800,2064
11801,0
11802,1918
11803,1722
11804,1820
11805,1913
11806,1839
11807,1788
11808,1921
11809,2000
11810,1887
11811,1765
11812,1799
11813,1863
11814,1803
11815,1600
11816,1616
11817,1786
11818,1827
11819,1761
11820,1787
11821,1933
11822,1894
11823,1711
11824,0
11825,0
11826,1875
11827,1727
11828,1714
11829,2000
11830,2429
11831,0
11832,3408
11833,4095
11834,4095
11835,4095
11836,3729
11837,3101
11838,2515
11839,1956
11840,1600
11841,1616
11842,1739
11843,1854
11844,1823
11845,1837
11846,1971
11847,1934
11848,1721
11849,1685
11850,1841
11851,1904
11852,1806
11853,1744
11854,1840
11855,1858
11856,1802
11857,1710
11858,1840
11859,1956
11860,1846
11861,1721
11862,1846
11863,1999
11864,1938
11865,1808
11866,1840
11867,1938
11868,1936
11869,1776
11870,0
11871,1936
11872,1999
11873,1872
11874,1875
11875,2055
11876,0
11877,2011
11878,1892
11879,2003
11880,2092
11881,2062
11882,2055
11883,2213
11884,2325
11885,2205
11886,0
11887,2174
11888,2295
11889,2307
11890,2224
11891,2288
11892,2469
11893,2453
11894,2303
11895,2323
11896,2474
11897,0
11898,2352
11899,2182
11900,2367
11901,2478
11902,2352
11903,2261
11904,0
11905,2354
11906,2177
11907,1872
11908,0
11909,1937
11910,1847
11911,0
11912,1774
11913,1853
11914,1742
11915,1574
11916,1535
11917,1605
11918,1601
11919,1498
11920,1494
11921,1655
11922,1648
11923,1460
11924,1412
11925,1535
11926,1569
11927,1477
11928,0
11929,0
11930,1644
11931,1526
11932,1426
11933,1558
11934,1679
11935,1603
11936,1375
11937,1438
11938,1635
11939,1627
11940,1500
11941,1574
11942,1722
11943,1706
11944,1530
11945,1489
11946,1629
11947,1666
11948,1589
11949,1609
11950,1751
11951,1794
11952,1641
11953,1533
11954,1638
11955,0
11956,1631
11957,1488
11958,1600
11959,1741
11960,1645
11961,1494
11962,1601
11963,1712
11964,1693
11965,1490
11966,0
11967,1675
11968,1689
11969,1535
11970,1583
11971,1731
11972,1776
11973,1633
11974,1522
11975,1632
11976,1693
11977,1653
11978,1626
11979,0
11980,1829
11981,1687
11982,1559
11983,1639
11984,1729
11985,1693
11986,1535
11987,1590
11988,1750
11989,1713
11990,1561
11991,1616
11992,1766
11993,1776
11994,1591
11995,1517
11996,1673
11997,1740
11998,1680
11999,0
12000,1855
12001,1885
12002,1701
12003,1584
12004,1711
12005,1794
12006,0
12007,1509
12008,1627
12009,1794
12010,1732
12011,1600
12012,1678
12013,1791
12014,1766
12015,1642
12016,1648
12017,1825
12018,1814
12019,1679
12020,1663
12021,1776
12022,1811
12023,1759
12024,1730
12025,1861
12026,1911
12027,1781
12028,1695
12029,1765
12030,1821
12031,0
12032,1682
12033,1805
12034,1936
12035,1836
12036,1663
12037,1712
12038,1825
12039,1825
12040,1725
12041,1780
12042,1985
12043,1999
12044,1850
12045,1811
12046,1907
12047,1941
12048,1926
12049,0
12050,2064
12051,2115
12052,1919
12053,1777
12054,1835
12055,1902
12056,1828
12057,1611
12058,1702
12059,1887
12060,1823
12061,1664
12062,1724
12063,1821
12064,0
12065,1740
12066,1788
12067,1920
12068,1890
12069,1735
12070,1703
12071,1813
12072,1834
12073,1706
12074,1680
12075,0
12076,1840
12077,1623
12078,1404
12079,1737
12080,2302
12081,2789
12082,3440
12083,4095
12084,4095
12085,4095
