Sample_Index,ADC_Value
0,1781
1,1774
2,1792
3,1802
4,1793
5,1758
6,1765
7,1789
8,1805
9,1794
10,1777
11,1805
12,1809
13,1795
14,1787
15,1822
16,1841
17,1839
18,1814
19,1827
20,1835
21,1827
22,1810
23,1827
24,1825
25,1831
26,1826
27,1840
28,1847
29,1867
30,1851
31,1889
32,1925
33,1936
34,1915
35,1907
36,1934
37,1956
38,1971
39,1979
40,2003
41,1988
42,1926
43,1861
44,1858
45,1868
46,1881
47,1875
48,1877
49,1857
50,1839
51,1819
52,1823
53,1815
54,1811
55,1780
56,1790
57,1809
58,1795
59,1794
60,1799
61,1805
62,1803
63,1793
64,1792
65,1808
66,1779
67,1745
68,1730
69,1814
70,2013
71,2370
72,2878
73,3712
74,4095
75,4095
76,4095
77,3669
78,2928
79,2342
80,1922
81,1742
82,1722
83,1753
84,1742
85,1761
86,1801
87,1823
88,1811
89,1802
90,1801
91,1795
92,1795
93,1789
94,1808
95,1807
96,1803
97,1791
98,1815
99,1812
100,1799
101,1778
102,1808
103,1831
104,1855
105,1837
106,1839
107,1855
108,1865
109,1872
110,1888
111,1904
112,1906
113,1904
114,1905
115,1930
116,1941
117,1939
118,1942
119,1973
120,1987
121,1994
122,1993
123,2026
124,2047
125,2071
126,2078
127,2112
128,2141
129,2160
130,2154
131,2186
132,2222
133,2258
134,2283
135,2336
136,2381
137,2405
138,2416
139,2432
140,2482
141,2507
142,2503
143,2480
144,2480
145,2457
146,2427
147,2352
148,2304
149,2229
150,2146
151,2023
152,1967
153,1909
154,1843
155,1763
156,1712
157,1669
158,1616
159,1553
160,1534
161,1531
162,1523
163,1511
164,1502
165,1511
166,1508
167,1473
168,1453
169,1486
170,1493
171,1499
172,1494
173,1515
174,1510
175,1490
176,1473
177,1506
178,1512
179,1523
180,1519
181,1527
182,1520
183,1525
184,1505
185,1527
186,1562
187,1575
188,1570
189,1570
190,1585
191,1578
192,1589
193,1596
194,1615
195,1618
196,1619
197,1602
198,1627
199,1629
200,1629
201,1595
202,1616
203,1638
204,1645
205,1639
206,1662
207,1657
208,1646
209,1637
210,1648
211,1651
212,1647
213,1632
214,1637
215,1663
216,1670
217,1653
218,1653
219,1678
220,1669
221,1663
222,1659
223,1682
224,1662
225,1645
226,1649
227,1677
228,1680
229,1667
230,1653
231,1674
232,1696
233,1706
234,1699
235,1697
236,1694
237,1685
238,1677
239,1698
240,1726
241,1722
242,1712
243,1707
244,1725
245,1722
246,1712
247,1714
248,1728
249,1723
250,1722
251,1705
252,1739
253,1744
254,1743
255,1728
256,1759
257,1758
258,1754
259,1721
260,1744
261,1776
262,1775
263,1742
264,1744
265,1775
266,1778
267,1776
268,1776
269,1798
270,1789
271,1777
272,1776
273,1808
274,1791
275,1782
276,1787
277,1798
278,1786
279,1791
280,1779
281,1797
282,1799
283,1777
284,1767
285,1787
286,1795
287,1799
288,1775
289,1790
290,1829
291,1829
292,1827
293,1823
294,1841
295,1825
296,1805
297,1811
298,1840
299,1840
300,1826
301,1820
302,1849
303,1840
304,1827
305,1811
306,1833
307,1843
308,1839
309,1835
310,1853
311,1860
312,1841
313,1842
314,1847
315,1863
316,1847
317,1851
318,1872
319,1918
320,1927
321,1943
322,1965
323,1981
324,1952
325,1929
326,1917
327,1965
328,1973
329,1990
330,1964
331,1950
332,1915
333,1882
334,1862
335,1881
336,1895
337,1872
338,1828
339,1835
340,1857
341,1840
342,1795
343,1785
344,1815
345,1817
346,1808
347,1801
348,1830
349,1821
350,1818
351,1822
352,1855
353,1840
354,1821
355,1802
356,1790
357,1759
358,1797
359,1998
360,2384
361,2924
362,3740
363,4095
364,4095
365,4095
366,3852
367,3056
368,2418
369,1966
370,1739
371,1715
372,1750
373,1817
374,1840
375,1841
376,1824
377,1840
378,1827
379,1810
380,1792
381,1813
382,1826
383,1796
384,1787
385,1813
386,1826
387,1823
388,1827
389,1842
390,1856
391,1839
392,1841
393,1850
394,1877
395,1872
396,1857
397,1855
398,1901
399,1904
400,1901
401,1888
402,1921
403,1952
404,1919
405,1927
406,1970
407,1977
408,1958
409,1962
410,2003
411,2033
412,2032
413,2031
414,2068
415,2107
416,2103
417,2118
418,2157
419,2201
420,2212
421,2226
422,2260
423,2321
424,2349
425,2367
426,2386
427,2432
428,2439
429,2448
430,2479
431,2514
432,2516
433,2512
434,2481
435,2464
436,2412
437,2337
438,2254
439,2189
440,2123
441,2021
442,1927
443,1867
444,1825
445,1749
446,1670
447,1617
448,1607
449,1567
450,1533
451,1520
452,1535
453,1533
454,1499
455,1456
456,1488
457,1503
458,1559
459,1467
460,1491
461,1519
462,1503
463,1455
464,1462
465,1501
466,1518
467,1530
468,1535
469,1553
470,1533
471,1534
472,1535
473,1568
474,1557
475,1535
476,1521
477,1563
478,1571
479,1558
480,1563
481,1602
482,1616
483,1600
484,1593
485,1615
486,1613
487,1601
488,1591
489,1612
490,1633
491,1621
492,1589
493,1601
494,1643
495,1648
496,1633
497,1634
498,1671
499,1658
500,1643
501,1639
502,1663
503,1659
504,1658
505,1620
506,1650
507,1652
508,1648
509,1621
510,1648
511,1670
512,1654
513,1635
514,1650
515,1672
516,1663
517,1665
518,1675
519,1682
520,1676
521,1669
522,1676
523,1689
524,1670
525,1667
526,1677
527,1705
528,1696
529,1679
530,1686
531,1715
532,1722
533,1711
534,1711
535,1728
536,1737
537,1725
538,1713
539,1728
540,1746
541,1729
542,1715
543,1730
544,1759
545,1741
546,1734
547,1730
548,1743
549,1726
550,1718
551,1728
552,1775
553,1775
554,1753
555,1737
556,1769
557,1767
558,1751
559,1747
560,1776
561,1789
562,1765
563,1760
564,1792
565,1808
566,1788
567,1791
568,1808
569,1819
570,1793
571,1775
572,1779
573,1815
574,1799
575,1793
576,1799
577,1830
578,1813
579,1795
580,1790
581,1819
582,1825
583,1815
584,1818
585,1851
586,1855
587,1833
588,1827
589,1851
590,1849
591,1834
592,1828
593,1846
594,1871
595,1873
596,1885
597,1919
598,1968
599,1950
600,1923
601,1908
602,1943
603,1968
604,1991
605,2000
606,1987
607,1936
608,1878
609,1853
610,1874
611,1882
612,1859
613,1855
614,1859
615,1851
616,1813
617,1805
618,1809
619,1822
620,1807
621,1799
622,1811
623,1835
624,1842
625,1802
626,1803
627,1826
628,1820
629,1819
630,1778
631,1789
632,1769
633,1747
634,1806
635,2061
636,2471
637,3050
638,3921
639,4095
640,4095
641,4095
642,3793
643,3002
644,2373
645,1917
646,1735
647,1739
648,1790
649,1811
650,1827
651,1843
652,1873
653,1866
654,1838
655,1840
656,1867
657,1852
658,1821
659,1822
660,1841
661,1840
662,1840
663,1838
664,1859
665,1872
666,1861
667,1855
668,1871
669,1890
670,1877
671,1872
672,1872
673,1898
674,1903
675,1899
676,1901
677,1943
678,1956
679,1957
680,1927
681,1968
682,1989
683,1987
684,1971
685,2014
686,2041
687,2057
688,2061
689,2085
690,2108
691,2111
692,2128
693,2153
694,2192
695,2204
696,2231
697,2279
698,2319
699,2324
700,2347
701,2381
702,2433
703,2453
704,2465
705,2485
706,2527
707,2523
708,2507
709,2490
710,2490
711,2455
712,2387
713,2317
714,2267
715,2195
716,2087
717,1983
718,1917
719,1860
720,1778
721,1710
722,1649
723,1649
724,1614
725,1580
726,1535
727,1535
728,1520
729,1505
730,1499
731,1521
732,1521
733,1505
734,1493
735,1523
736,1523
737,1511
738,1506
739,1533
740,1535
741,1515
742,1512
743,1531
744,1535
745,1535
746,1535
747,1559
748,1584
749,1570
750,1556
751,1573
752,1606
753,1584
754,1575
755,1585
756,1618
757,1616
758,1604
759,1600
760,1635
761,1647
762,1646
763,1611
764,1631
765,1653
766,1655
767,1629
768,1639
769,1668
770,1667
771,1662
772,1657
773,1680
774,1683
775,1686
776,1675
777,1693
778,1680
779,1677
780,1666
781,1693
782,1686
783,1680
784,1678
785,1697
786,1694
787,1678
788,1680
789,1703
790,1708
791,1689
792,1690
793,1711
794,1717
795,1703
796,1685
797,1693
798,1703
799,1695
800,1699
801,1696
802,1727
803,1712
804,1697
805,1711
806,1741
807,1730
808,1718
809,1697
810,1712
811,1715
812,1712
813,1690
814,1715
815,1744
816,1734
817,1728
818,1745
819,1762
820,1744
821,1733
822,1733
823,1758
824,1745
825,1747
826,1747
827,1765
828,1746
829,1746
830,1753
831,1770
832,1752
833,1731
834,1726
835,1759
836,1775
837,1766
838,1753
839,1777
840,1783
841,1776
842,1770
843,1774
844,1783
845,1776
846,1775
847,1787
848,1804
849,1778
850,1766
851,1773
852,1802
853,1797
854,1791
855,1753
856,1775
857,1781
858,1775
859,1776
860,1813
861,1813
862,1808
863,1783
864,1809
865,1819
866,1802
867,1796
868,1811
869,1818
870,1815
871,1811
872,1840
873,1898
874,1908
875,1920
876,1938
877,1957
878,1936
879,1917
880,1920
881,1968
882,1990
883,1981
884,1951
885,1931
886,1887
887,1850
888,1842
889,1869
890,1871
891,1826
892,1803
893,1823
894,1824
895,1793
896,1763
897,1785
898,1807
899,1794
900,1776
901,1776
902,1804
903,1799
904,1793
905,1793
906,1811
907,1803
908,1793
909,1777
910,1777
911,1776
912,1872
913,2117
914,2558
915,3203
916,4095
917,4095
918,4095
919,4095
920,3664
921,2846
922,2225
923,1853
924,1700
925,1712
926,1786
927,1835
928,1841
929,1833
930,1836
931,1838
932,1817
933,1792
934,1793
935,1817
936,1813
937,1799
938,1807
939,1840
940,1847
941,1840
942,1831
943,1841
944,1845
945,1840
946,1829
947,1846
948,1872
949,1860
950,1863
951,1871
952,1904
953,1906
954,1899
955,1883
956,1918
957,1963
958,1931
959,1923
960,1968
961,1991
962,1985
963,1984
964,2022
965,2047
966,2059
967,2064
968,2087
969,2114
970,2128
971,2133
972,2176
973,2226
974,2239
975,2246
976,2285
977,2343
978,2365
979,2367
980,2406
981,2458
982,2481
983,2485
984,2496
985,2531
986,2523
987,2491
988,2450
989,2429
990,2380
991,2294
992,2204
993,2135
994,2071
995,1968
996,1872
997,1810
998,1764
999,1689
1000,1620
1001,1594
1002,1584
1003,1535
1004,1526
1005,1511
1006,1517
1007,1487
1008,1453
1009,1451
1010,1482
1011,1491
1012,1479
1013,1456
1014,1483
1015,1499
1016,1483
1017,1481
1018,1503
1019,1511
1020,1497
1021,1488
1022,1504
1023,1521
1024,1513
1025,1509
1026,1525
1027,1569
1028,1555
1029,1535
1030,1535
1031,1572
1032,1573
1033,1581
1034,1565
1035,1593
1036,1593
1037,1594
1038,1600
1039,1616
1040,1618
1041,1606
1042,1609
1043,1629
1044,1645
1045,1634
1046,1629
1047,1639
1048,1666
1049,1662
1050,1632
1051,1641
1052,1664
1053,1660
1054,1651
1055,1652
1056,1670
1057,1661
1058,1653
1059,1627
1060,1648
1061,1647
1062,1648
1063,1651
1064,1680
1065,1681
1066,1659
1067,1649
1068,1667
1069,1687
1070,1663
1071,1644
1072,1641
1073,1674
1074,1664
1075,1663
1076,1611
1077,1687
1078,1669
1079,1677
1080,1680
1081,1702
1082,1696
1083,1702
1084,1679
1085,1705
1086,1702
1087,1697
1088,1666
1089,1687
1090,1705
1091,1702
1092,1696
1093,1717
1094,1736
1095,1712
1096,1707
1097,1703
1098,1733
1099,1715
1100,1712
1101,1717
1102,1744
1103,1719
1104,1722
1105,1726
1106,1744
1107,1729
1108,1737
1109,1728
1110,1742
1111,1737
1112,1731
1113,1744
1114,1775
1115,1776
1116,1754
1117,1745
1118,1769
1119,1772
1120,1757
1121,1745
1122,1763
1123,1787
1124,1771
1125,1758
1126,1759
1127,1774
1128,1760
1129,1765
1130,1771
1131,1794
1132,1785
1133,1776
1134,1775
1135,1805
1136,1804
1137,1799
1138,1782
1139,1792
1140,1792
1141,1783
1142,1791
1143,1808
1144,1823
1145,1797
1146,1790
1147,1801
1148,1811
1149,1798
1150,1792
1151,1806
1152,1846
1153,1826
1154,1807
1155,1793
1156,1818
1157,1813
1158,1821
1159,1861
1160,1911
1161,1922
1162,1927
1163,1927
1164,1906
1165,1909
1166,1895
1167,1906
1168,1954
1169,1981
1170,1949
1171,1890
1172,1869
1173,1855
1174,1840
1175,1834
1176,1843
1177,1853
1178,1823
1179,1805
1180,1796
1181,1807
1182,1781
1183,1774
1184,1775
1185,1807
1186,1799
1187,1781
1188,1774
1189,1801
1190,1796
1191,1783
1192,1776
1193,1797
1194,1789
1195,1766
1196,1735
1197,1748
1198,1839
1199,2031
1200,2386
1201,2943
1202,3874
1203,4095
1204,4095
1205,4095
1206,3873
1207,3056
1208,2382
1209,1875
1210,1719
1211,1719
1212,1752
1213,1779
1214,1828
1215,1841
1216,1823
1217,1807
1218,1820
1219,1807
1220,1776
1221,1753
1222,1775
1223,1814
1224,1815
1225,1808
1226,1806
1227,1825
1228,1823
1229,1813
1230,1818
1231,1851
1232,1850
1233,1843
1234,1847
1235,1873
1236,1870
1237,1847
1238,1853
1239,1893
1240,1897
1241,1890
1242,1895
1243,1922
1244,1929
1245,1923
1246,1933
1247,1959
1248,1990
1249,1986
1250,1989
1251,2010
1252,2038
1253,2039
1254,2058
1255,2089
1256,2123
1257,2126
1258,2148
1259,2192
1260,2238
1261,2257
1262,2277
1263,2304
1264,2364
1265,2391
1266,2405
1267,2412
1268,2464
1269,2501
1270,2503
1271,2491
1272,2496
1273,2512
1274,2482
1275,2423
1276,2379
1277,2335
1278,2251
1279,2160
1280,2083
1281,2015
1282,1915
1283,1829
1284,1733
1285,1707
1286,1658
1287,1614
1288,1579
1289,1569
1290,1535
1291,1518
1292,1498
1293,1504
1294,1501
1295,1472
1296,1442
1297,1456
1298,1488
1299,1479
1300,1478
1301,1502
1302,1523
1303,1494
1304,1488
1305,1486
1306,1518
1307,1513
1308,1505
1309,1490
1310,1520
1311,1523
1312,1517
1313,1505
1314,1559
1315,1571
1316,1535
1317,1528
1318,1570
1319,1586
1320,1583
1321,1569
1322,1583
1323,1609
1324,1600
1325,1590
1326,1607
1327,1648
1328,1648
1329,1616
1330,1610
1331,1633
1332,1629
1333,1646
1334,1616
1335,1677
1336,1655
1337,1642
1338,1639
1339,1669
1340,1673
1341,1664
1342,1637
1343,1657
1344,1675
1345,1671
1346,1671
1347,1697
1348,1691
1349,1669
1350,1661
1351,1665
1352,1693
1353,1687
1354,1680
1355,1667
1356,1693
1357,1685
1358,1670
1359,1650
1360,1680
1361,1705
1362,1691
1363,1687
1364,1715
1365,1721
1366,1703
1367,1685
1368,1723
1369,1727
1370,1710
1371,1712
1372,1730
1373,1744
1374,1727
1375,1718
1376,1734
1377,1755
1378,1729
1379,1726
1380,1737
1381,1767
1382,1761
1383,1746
1384,1737
1385,1770
1386,1759
1387,1751
1388,1739
1389,1766
1390,1769
1391,1748
1392,1797
1393,1777
1394,1778
1395,1772
1396,1770
1397,1781
1398,1789
1399,1765
1400,1762
1401,1786
1402,1809
1403,1788
1404,1779
1405,1785
1406,1813
1407,1797
1408,1783
1409,1785
1410,1810
1411,1807
1412,1795
1413,1791
1414,1807
1415,1803
1416,1801
1417,1791
1418,1815
1419,1832
1420,1824
1421,1807
1422,1819
1423,1829
1424,1815
1425,1798
1426,1802
1427,1828
1428,1823
1429,1812
1430,1819
1431,1840
1432,1825
1433,1811
1434,1809
1435,1845
1436,1853
1437,1829
1438,1817
1439,1854
1440,1866
1441,1849
1442,1838
1443,1860
1444,1899
1445,1911
1446,1920
1447,1966
1448,1990
1449,1957
1450,1913
1451,1933
1452,1984
1453,1991
1454,1999
1455,1989
1456,1978
1457,1929
1458,1886
1459,1872
1460,1895
1461,1890
1462,1873
1463,1855
1464,1866
1465,1849
1466,1827
1467,1813
1468,1839
1469,1829
1470,1811
1471,1791
1472,1815
1473,1821
1474,1811
1475,1808
1476,1776
1477,1852
1478,1834
1479,1823
1480,1809
1481,1806
1482,1771
1483,1773
1484,1903
1485,2239
1486,2710
1487,3404
1488,4095
1489,4095
1490,4095
1491,4095
1492,3456
1493,2731
1494,2167
1495,1823
1496,1727
1497,1770
1498,1809
1499,1826
1500,1840
1501,1871
1502,1882
1503,1846
1504,1808
1505,1813
1506,1851
1507,1831
1508,1819
1509,1819
1510,1851
1511,1849
1512,1839
1513,1818
1514,1858
1515,1872
1516,1859
1517,1852
1518,1875
1519,1888
1520,1900
1521,1892
1522,1906
1523,1917
1524,1902
1525,1893
1526,1927
1527,1967
1528,1956
1529,1936
1530,1943
1531,1978
1532,1984
1533,1971
1534,1978
1535,2047
1536,2090
1537,2081
1538,2066
1539,2096
1540,2095
1541,2095
1542,2102
1543,2161
1544,2194
1545,2207
1546,2231
1547,2291
1548,2333
1549,2352
1550,2373
1551,2419
1552,2448
1553,2450
1554,2459
1555,2484
1556,2529
1557,2528
1558,2510
1559,2483
1560,2478
1561,2423
1562,2342
1563,2249
1564,2207
1565,2140
1566,2045
1567,1951
1568,1904
1569,1837
1570,1758
1571,1695
1572,1666
1573,1630
1574,1589
1575,1527
1576,1520
1577,1535
1578,1530
1579,1515
1580,1514
1581,1533
1582,1515
1583,1501
1584,1499
1585,1517
1586,1503
1587,1493
1588,1472
1589,1498
1590,1517
1591,1520
1592,1523
1593,1535
1594,1535
1595,1520
1596,1517
1597,1535
1598,1561
1599,1535
1600,1535
1601,1557
1602,1584
1603,1583
1604,1577
1605,1587
1606,1619
1607,1606
1608,1602
1609,1603
1610,1633
1611,1619
1612,1626
1613,1615
1614,1637
1615,1638
1616,1638
1617,1629
1618,1658
1619,1672
1620,1653
1621,1648
1622,1686
1623,1697
1624,1675
1625,1652
1626,1654
1627,1680
1628,1673
1629,1648
1630,1648
1631,1679
1632,1677
1633,1670
1634,1666
1635,1693
1636,1686
1637,1680
1638,1671
1639,1689
1640,1680
1641,1680
1642,1652
1643,1694
1644,1712
1645,1699
1646,1693
1647,1708
1648,1711
1649,1697
1650,1693
1651,1708
1652,1727
1653,1710
1654,1681
1655,1690
1656,1728
1657,1718
1658,1703
1659,1708
1660,1744
1661,1743
1662,1722
1663,1716
1664,1735
1665,1728
1666,1714
1667,1712
1668,1739
1669,1744
1670,1728
1671,1725
1672,1755
1673,1764
1674,1744
1675,1726
1676,1739
1677,1762
1678,1758
1679,1754
1680,1764
1681,1783
1682,1772
1683,1742
1684,1743
1685,1782
1686,1775
1687,1751
1688,1760
1689,1786
1690,1785
1691,1792
1692,1791
1693,1799
1694,1797
1695,1786
1696,1770
1697,1807
1698,1793
1699,1792
1700,1755
1701,1769
1702,1796
1703,1795
1704,1783
1705,1795
1706,1823
1707,1808
1708,1798
1709,1792
1710,1812
1711,1806
1712,1797
1713,1806
1714,1840
1715,1826
1716,1812
1717,1785
1718,1812
1719,1821
1720,1814
1721,1840
1722,1904
1723,1929
1724,1933
1725,1917
1726,1915
1727,1920
1728,1917
1729,1909
1730,1936
1731,1982
1732,1968
1733,1927
1734,1890
1735,1885
1736,1863
1737,1849
1738,1839
1739,1858
1740,1841
1741,1800
1742,1776
1743,1791
1744,1782
1745,1781
1746,1773
1747,1810
1748,1825
1749,1802
1750,1782
1751,1791
1752,1808
1753,1798
1754,1790
1755,1803
1756,1821
1757,1792
1758,1750
1759,1731
1760,1808
1761,1970
1762,2289
1763,2805
1764,3645
1765,4095
1766,4095
1767,4095
1768,4070
1769,3284
1770,2543
1771,1968
1772,1738
1773,1709
1774,1741
1775,1782
1776,1840
1777,1867
1778,1843
1779,1833
1780,1825
1781,1831
1782,1810
1783,1786
1784,1794
1785,1839
1786,1826
1787,1808
1788,1797
1789,1841
1790,1840
1791,1828
1792,1829
1793,1856
1794,1843
1795,1839
1796,1822
1797,1854
1798,1871
1799,1863
1800,1856
1801,1881
1802,1914
1803,1898
1804,1894
1805,1917
1806,1941
1807,1942
1808,1955
1809,1957
1810,1987
1811,1979
1812,1983
1813,1998
1814,2034
1815,2041
1816,2047
1817,2064
1818,2101
1819,2129
1820,2158
1821,2183
1822,2227
1823,2253
1824,2277
1825,2278
1826,2320
1827,2378
1828,2402
1829,2426
1830,2466
1831,2503
1832,2505
1833,2498
1834,2508
1835,2519
1836,2479
1837,2425
1838,2352
1839,2321
1840,2256
1841,2160
1842,2065
1843,1999
1844,1910
1845,1814
1846,1744
1847,1719
1848,1666
1849,1605
1850,1533
1851,1528
1852,1535
1853,1502
1854,1466
1855,1461
1856,1475
1857,1456
1858,1438
1859,1454
1860,1479
1861,1467
1862,1463
1863,1472
1864,1490
1865,1485
1866,1468
1867,1455
1868,1474
1869,1479
1870,1485
1871,1461
1872,1502
1873,1521
1874,1502
1875,1493
1876,1520
1877,1535
1878,1535
1879,1510
1880,1513
1881,1555
1882,1555
1883,1563
1884,1574
1885,1600
1886,1587
1887,1571
1888,1569
1889,1575
1890,1600
1891,1600
1892,1584
1893,1622
1894,1639
1895,1614
1896,1600
1897,1622
1898,1627
1899,1610
1900,1599
1901,1621
1902,1650
1903,1645
1904,1643
1905,1650
1906,1655
1907,1622
1908,1598
1909,1603
1910,1646
1911,1647
1912,1641
1913,1648
1914,1665
1915,1652
1916,1648
1917,1647
1918,1671
1919,1666
1920,1643
1921,1631
1922,1669
1923,1686
1924,1671
1925,1648
1926,1666
1927,1681
1928,1677
1929,1651
1930,1664
1931,1695
1932,1685
1933,1658
1934,1664
1935,1701
1936,1691
1937,1671
1938,1675
1939,1711
1940,1709
1941,1697
1942,1677
1943,1706
1944,1722
1945,1706
1946,1696
1947,1723
1948,1731
1949,1715
1950,1707
1951,1715
1952,1733
1953,1727
1954,1721
1955,1745
1956,1767
1957,1744
1958,1711
1959,1718
1960,1751
1961,1758
1962,1759
1963,1759
1964,1787
1965,1774
1966,1751
1967,1744
1968,1776
1969,1782
1970,1762
1971,1742
1972,1770
1973,1786
1974,1775
1975,1744
1976,1773
1977,1795
1978,1775
1979,1755
1980,1787
1981,1815
1982,1792
1983,1783
1984,1776
1985,1803
1986,1792
1987,1767
1988,1750
1989,1791
1990,1802
1991,1801
1992,1796
1993,1821
1994,1817
1995,1806
1996,1808
1997,1828
1998,1845
1999,1855
2000,1855
2001,1918
2002,1947
2003,1915
2004,1881
2005,1903
2006,1955
2007,1954
2008,1959
2009,1962
2010,1949
2011,1892
2012,1859
2013,1837
2014,1857
2015,1840
2016,1815
2017,1813
2018,1838
2019,1812
2020,1786
2021,1755
2022,1776
2023,1791
2024,1776
2025,1745
2026,1791
2027,1813
2028,1790
2029,1770
2030,1792
2031,1822
2032,1797
2033,1759
2034,1744
2035,1759
2036,1727
2037,1747
2038,1931
2039,2330
2040,2848
2041,3619
2042,4095
2043,4095
2044,4095
2045,4060
2046,3258
2047,2555
2048,2019
2049,1746
2050,1673
2051,1744
2052,1818
2053,1825
2054,1819
2055,1859
2056,1890
2057,1853
2058,1808
2059,1799
2060,1833
2061,1827
2062,1797
2063,1782
2064,1824
2065,1833
2066,1819
2067,1830
2068,1867
2069,1863
2070,1847
2071,1851
2072,1878
2073,1873
2074,1861
2075,1841
2076,1889
2077,1915
2078,1894
2079,1873
2080,1919
2081,1939
2082,1939
2083,1939
2084,1953
2085,1995
2086,1993
2087,1973
2088,1983
2089,2029
2090,2046
2091,2055
2092,2058
2093,2112
2094,2128
2095,2122
2096,2103
2097,2176
2098,2237
2099,2252
2100,2257
2101,2319
2102,2358
2103,2375
2104,2395
2105,2432
2106,2482
2107,2497
2108,2462
2109,2480
2110,2544
2111,2556
2112,2519
2113,2505
2114,2512
2115,2442
2116,2355
2117,2277
2118,2223
2119,2137
2120,2035
2121,1926
2122,1885
2123,1828
2124,1749
2125,1691
2126,1684
2127,1659
2128,1596
2129,1535
2130,1535
2131,1563
2132,1524
2133,1499
2134,1508
2135,1535
2136,1531
2137,1503
2138,1505
2139,1535
2140,1529
2141,1503
2142,1511
2143,1557
2144,1535
2145,1520
2146,1488
2147,1535
2148,1563
2149,1535
2150,1524
2151,1562
2152,1587
2153,1578
2154,1563
2155,1599
2156,1635
2157,1613
2158,1590
2159,1609
2160,1649
2161,1647
2162,1622
2163,1618
2164,1659
2165,1658
2166,1629
2167,1607
2168,1649
2169,1650
2170,1639
2171,1638
2172,1685
2173,1707
2174,1685
2175,1657
2176,1707
2177,1710
2178,1685
2179,1663
2180,1665
2181,1705
2182,1692
2183,1671
2184,1680
2185,1723
2186,1707
2187,1680
2188,1688
2189,1716
2190,1698
2191,1665
2192,1654
2193,1702
2194,1702
2195,1686
2196,1696
2197,1729
2198,1724
2199,1705
2200,1690
2201,1725
2202,1744
2203,1722
2204,1695
2205,1714
2206,1734
2207,1743
2208,1732
2209,1734
2210,1759
2211,1737
2212,1727
2213,1737
2214,1761
2215,1744
2216,1734
2217,1732
2218,1771
2219,1765
2220,1733
2221,1722
2222,1763
2223,1776
2224,1760
2225,1727
2226,1759
2227,1781
2228,1766
2229,1745
2230,1776
2231,1806
2232,1781
2233,1751
2234,1774
2235,1805
2236,1794
2237,1767
2238,1761
2239,1806
2240,1797
2241,1771
2242,1769
2243,1810
2244,1815
2245,1797
2246,1790
2247,1815
2248,1811
2249,1801
2250,1781
2251,1827
2252,1835
2253,1810
2254,1797
2255,1825
2256,1840
2257,1808
2258,1779
2259,1797
2260,1824
2261,1837
2262,1807
2263,1806
2264,1846
2265,1840
2266,1813
2267,1803
2268,1839
2269,1835
2270,1802
2271,1787
2272,1842
2273,1847
2274,1838
2275,1822
2276,1851
2277,1860
2278,1840
2279,1819
2280,1853
2281,1903
2282,1903
2283,1901
2284,1940
2285,1971
2286,1949
2287,1919
2288,1875
2289,1980
2290,1994
2291,1984
2292,1971
2293,1966
2294,1925
2295,1881
2296,1867
2297,1898
2298,1902
2299,1871
2300,1822
2301,1841
2302,1853
2303,1826
2304,1807
2305,1811
2306,1819
2307,1808
2308,1786
2309,1805
2310,1841
2311,1840
2312,1815
2313,1813
2314,1847
2315,1811
2316,1808
2317,1792
2318,1802
2319,1778
2320,1791
2321,1903
2322,2224
2323,2683
2324,3350
2325,4095
2326,4095
2327,4095
2328,4095
2329,3536
2330,2781
2331,2201
2332,1825
2333,1706
2334,1750
2335,1829
2336,1844
2337,1840
2338,1841
2339,1869
2340,1841
2341,1802
2342,1787
2343,1822
2344,1817
2345,1797
2346,1794
2347,1825
2348,1833
2349,1824
2350,1808
2351,1845
2352,1857
2353,1846
2354,1827
2355,1855
2356,1886
2357,1872
2358,1873
2359,1894
2360,1887
2361,1894
2362,1872
2363,1897
2364,1952
2365,1948
2366,1926
2367,1943
2368,1994
2369,1986
2370,1968
2371,1950
2372,1997
2373,2019
2374,2019
2375,2030
2376,2083
2377,2107
2378,2116
2379,2131
2380,2195
2381,2225
2382,2231
2383,2251
2384,2288
2385,2322
2386,2320
2387,2338
2388,2387
2389,2464
2390,2480
2391,2469
2392,2479
2393,2524
2394,2523
2395,2502
2396,2483
2397,2494
2398,2436
2399,2361
2400,2273
2401,2224
2402,2151
2403,2037
2404,1942
2405,1891
2406,1841
2407,1758
2408,1666
2409,1632
2410,1621
2411,1584
2412,1535
2413,1531
2414,1535
2415,1503
2416,1486
2417,1487
2418,1515
2419,1507
2420,1486
2421,1477
2422,1499
2423,1489
2424,1472
2425,1466
2426,1507
2427,1523
2428,1504
2429,1488
2430,1517
2431,1529
2432,1497
2433,1485
2434,1514
2435,1565
2436,1535
2437,1526
2438,1535
2439,1572
2440,1535
2441,1535
2442,1535
2443,1590
2444,1591
2445,1584
2446,1584
2447,1616
2448,1616
2449,1593
2450,1582
2451,1616
2452,1629
2453,1614
2454,1601
2455,1637
2456,1651
2457,1636
2458,1623
2459,1645
2460,1667
2461,1641
2462,1631
2463,1648
2464,1675
2465,1658
2466,1615
2467,1610
2468,1665
2469,1664
2470,1636
2471,1621
2472,1657
2473,1671
2474,1653
2475,1647
2476,1675
2477,1677
2478,1653
2479,1634
2480,1663
2481,1680
2482,1663
2483,1645
2484,1675
2485,1703
2486,1683
2487,1652
2488,1674
2489,1707
2490,1694
2491,1677
2492,1678
2493,1718
2494,1694
2495,1669
2496,1653
2497,1692
2498,1701
2499,1686
2500,1681
2501,1713
2502,1714
2503,1686
2504,1675
2505,1736
2506,1739
2507,1729
2508,1713
2509,1734
2510,1749
2511,1723
2512,1712
2513,1723
2514,1750
2515,1735
2516,1728
2517,1743
2518,1789
2519,1773
2520,1739
2521,1733
2522,1767
2523,1758
2524,1749
2525,1744
2526,1777
2527,1788
2528,1757
2529,1759
2530,1797
2531,1807
2532,1773
2533,1742
2534,1767
2535,1801
2536,1788
2537,1778
2538,1785
2539,1811
2540,1805
2541,1774
2542,1777
2543,1815
2544,1807
2545,1787
2546,1782
2547,1808
2548,1808
2549,1790
2550,1797
2551,1844
2552,1872
2553,1872
2554,1877
2555,1921
2556,1939
2557,1913
2558,1869
2559,1890
2560,1936
2561,1957
2562,1957
2563,1968
2564,1962
2565,1904
2566,1854
2567,1842
2568,1879
2569,1867
2570,1835
2571,1825
2572,1847
2573,1827
2574,1801
2575,1771
2576,1799
2577,1801
2578,1776
2579,1775
2580,1808
2581,1823
2582,1788
2583,1778
2584,1825
2585,1838
2586,1810
2587,1791
2588,1802
2589,1808
2590,1757
2591,1747
2592,1878
2593,2195
2594,2662
2595,3328
2596,4095
2597,4095
2598,4095
2599,4095
2600,3393
2601,2704
2602,2158
2603,1828
2604,1718
2605,1765
2606,1807
2607,1815
2608,1821
2609,1862
2610,1876
2611,1849
2612,1817
2613,1827
2614,1847
2615,1821
2616,1801
2617,1829
2618,1861
2619,1852
2620,1843
2621,1845
2622,1875
2623,1871
2624,1861
2625,1867
2626,1910
2627,1895
2628,1883
2629,1881
2630,1915
2631,1935
2632,1921
2633,1902
2634,1929
2635,1959
2636,1947
2637,1939
2638,1963
2639,1983
2640,1977
2641,1973
2642,1996
2643,2047
2644,2055
2645,2032
2646,2045
2647,2097
2648,2111
2649,2112
2650,2113
2651,2180
2652,2229
2653,2241
2654,2243
2655,2299
2656,2336
2657,2347
2658,2358
2659,2416
2660,2454
2661,2454
2662,2448
2663,2486
2664,2537
2665,2533
2666,2517
2667,2512
2668,2503
2669,2435
2670,2352
2671,2267
2672,2217
2673,2126
2674,2025
2675,1936
2676,1891
2677,1814
2678,1743
2679,1680
2680,1673
2681,1642
2682,1582
2683,1535
2684,1535
2685,1535
2686,1526
2687,1498
2688,1501
2689,1515
2690,1501
2691,1478
2692,1483
2693,1520
2694,1517
2695,1495
2696,1488
2697,1527
2698,1534
2699,1521
2700,1519
2701,1557
2702,1555
2703,1535
2704,1531
2705,1564
2706,1571
2707,1535
2708,1535
2709,1584
2710,1606
2711,1589
2712,1569
2713,1600
2714,1633
2715,1629
2716,1615
2717,1617
2718,1642
2719,1627
2720,1612
2721,1613
2722,1653
2723,1655
2724,1638
2725,1641
2726,1681
2727,1680
2728,1664
2729,1645
2730,1674
2731,1681
2732,1662
2733,1649
2734,1682
2735,1687
2736,1659
2737,1639
2738,1661
2739,1687
2740,1677
2741,1686
2742,1677
2743,1691
2744,1672
2745,1641
2746,1639
2747,1685
2748,1686
2749,1695
2750,1702
2751,1718
2752,1706
2753,1683
2754,1658
2755,1690
2756,1710
2757,1696
2758,1667
2759,1695
2760,1726
2761,1708
2762,1703
2763,1713
2764,1724
2765,1709
2766,1701
2767,1713
2768,1746
2769,1739
2770,1722
2771,1719
2772,1750
2773,1749
2774,1733
2775,1728
2776,1753
2777,1744
2778,1727
2779,1722
2780,1761
2781,1776
2782,1754
2783,1738
2784,1757
2785,1767
2786,1747
2787,1731
2788,1759
2789,1783
2790,1779
2791,1770
2792,1775
2793,1791
2794,1775
2795,1766
2796,1766
2797,1801
2798,1789
2799,1777
2800,1775
2801,1808
2802,1805
2803,1791
2804,1786
2805,1806
2806,1803
2807,1781
2808,1747
2809,1785
2810,1808
2811,1791
2812,1781
2813,1811
2814,1838
2815,1824
2816,1799
2817,1802
2818,1825
2819,1823
2820,1807
2821,1815
2822,1842
2823,1823
2824,1812
2825,1809
2826,1840
2827,1829
2828,1807
2829,1808
2830,1871
2831,1901
2832,1894
2833,1906
2834,1936
2835,1952
2836,1936
2837,1904
2838,1927
2839,1968
2840,1983
2841,1980
2842,1968
2843,1947
2844,1890
2845,1857
2846,1856
2847,1881
2848,1873
2849,1846
2850,1818
2851,1837
2852,1833
2853,1807
2854,1779
2855,1806
2856,1795
2857,1791
2858,1779
2859,1805
2860,1815
2861,1806
2862,1783
2863,1808
2864,1833
2865,1811
2866,1783
2867,1776
2868,1778
2869,1767
2870,1830
2871,2059
2872,2489
2873,3063
2874,3952
2875,4095
2876,4095
2877,4095
2878,3822
2879,2994
2880,2364
2881,1902
2882,1709
2883,1680
2884,1769
2885,1831
2886,1843
2887,1837
2888,1845
2889,1849
2890,1815
2891,1796
2892,1801
2893,1818
2894,1811
2895,1805
2896,1809
2897,1844
2898,1838
2899,1811
2900,1809
2901,1853
2902,1846
2903,1833
2904,1808
2905,1857
2906,1887
2907,1885
2908,1872
2909,1890
2910,1906
2911,1900
2912,1893
2913,1907
2914,1935
2915,1931
2916,1931
2917,1954
2918,1987
2919,1984
2920,1970
2921,1997
2922,2036
2923,2042
2924,2061
2925,2071
2926,2122
2927,2130
2928,2132
2929,2151
2930,2202
2931,2219
2932,2223
2933,2247
2934,2316
2935,2368
2936,2373
2937,2391
2938,2437
2939,2480
2940,2483
2941,2475
2942,2506
2943,2552
2944,2533
2945,2482
2946,2446
2947,2450
2948,2402
2949,2313
2950,2242
2951,2181
2952,2091
2953,1985
2954,1895
2955,1845
2956,1778
2957,1708
2958,1643
2959,1637
2960,1616
2961,1565
2962,1533
2963,1533
2964,1529
2965,1511
2966,1483
2967,1487
2968,1518
2969,1499
2970,1483
2971,1485
2972,1519
2973,1511
2974,1490
2975,1477
2976,1511
2977,1518
2978,1519
2979,1508
2980,1535
2981,1535
2982,1525
2983,1517
2984,1555
2985,1580
2986,1535
2987,1556
2988,1578
2989,1591
2990,1584
2991,1588
2992,1611
2993,1627
2994,1607
2995,1591
2996,1611
2997,1648
2998,1646
2999,1619
3000,1622
3001,1664
3002,1662
3003,1646
3004,1614
3005,1648
3006,1650
3007,1632
3008,1635
3009,1675
3010,1675
3011,1661
3012,1652
3013,1673
3014,1689
3015,1676
3016,1648
3017,1664
3018,1687
3019,1677
3020,1661
3021,1657
3022,1680
3023,1671
3024,1665
3025,1647
3026,1676
3027,1679
3028,1670
3029,1664
3030,1695
3031,1699
3032,1679
3033,1665
3034,1696
3035,1711
3036,1699
3037,1680
3038,1695
3039,1715
3040,1692
3041,1663
3042,1681
3043,1712
3044,1713
3045,1697
3046,1699
3047,1733
3048,1722
3049,1711
3050,1712
3051,1744
3052,1728
3053,1709
3054,1710
3055,1746
3056,1744
3057,1716
3058,1713
3059,1749
3060,1747
3061,1730
3062,1730
3063,1765
3064,1783
3065,1751
3066,1735
3067,1747
3068,1773
3069,1756
3070,1747
3071,1765
3072,1784
3073,1767
3074,1750
3075,1739
3076,1776
3077,1770
3078,1754
3079,1747
3080,1785
3081,1890
3082,1777
3083,1762
3084,1791
3085,1797
3086,1783
3087,1746
3088,1769
3089,1795
3090,1786
3091,1771
3092,1806
3093,1833
3094,1803
3095,1782
3096,1777
3097,1810
3098,1810
3099,1808
3100,1807
3101,1831
3102,1815
3103,1798
3104,1799
3105,1834
3106,1822
3107,1806
3108,1797
3109,1837
3110,1840
3111,1826
3112,1808
3113,1827
3114,1838
3115,1813
3116,1812
3117,1841
3118,1869
3119,1863
3120,1874
3121,1904
3122,1947
3123,1949
3124,1942
3125,1931
3126,1951
3127,1941
3128,1957
3129,1963
3130,1995
3131,1971
3132,1927
3133,1895
3134,1904
3135,1890
3136,1860
3137,1842
3138,1850
3139,1854
3140,1831
3141,1806
3142,1808
3143,1819
3144,1805
3145,1789
3146,1799
3147,1827
3148,1808
3149,1797
3150,1787
3151,1821
3152,1810
3153,1806
3154,1781
3155,1801
3156,1787
3157,1744
3158,1729
3159,1858
3160,2109
3161,2487
3162,3047
3163,4011
3164,4095
3165,4095
3166,4095
3167,3792
3168,2990
3169,2318
3170,1851
3171,1694
3172,1739
3173,1783
3174,1808
3175,1829
3176,1871
3177,1855
3178,1832
3179,1807
3180,1825
3181,1828
3182,1811
3183,1796
3184,1834
3185,1851
3186,1831
3187,1813
3188,1841
3189,1853
3190,1840
3191,1831
3192,1853
3193,1875
3194,1856
3195,1838
3196,1854
3197,1901
3198,1904
3199,1889
3200,1872
3201,1921
3202,1934
3203,1927
3204,1933
3205,1955
3206,1963
3207,1961
3208,1956
3209,2000
3210,2029
3211,2022
3212,2025
3213,2067
3214,2097
3215,2097
3216,2103
3217,2149
3218,2192
3219,2195
3220,2205
3221,2239
3222,2291
3223,2309
3224,2327
3225,2362
3226,2423
3227,2442
3228,2447
3229,2471
3230,2531
3231,2539
3232,2525
3233,2489
3234,2512
3235,2499
3236,2442
3237,2375
3238,2317
3239,2249
3240,2155
3241,2032
3242,1955
3243,1904
3244,1828
3245,1744
3246,1690
3247,1668
3248,1607
3249,1561
3250,1530
3251,1535
3252,1519
3253,1489
3254,1465
3255,1485
3256,1488
3257,1463
3258,1449
3259,1479
3260,1486
3261,1474
3262,1470
3263,1495
3264,1503
3265,1491
3266,1492
3267,1514
3268,1527
3269,1506
3270,1491
3271,1515
3272,1535
3273,1521
3274,1506
3275,1519
3276,1562
3277,1555
3278,1535
3279,1535
3280,1589
3281,1597
3282,1584
3283,1571
3284,1602
3285,1616
3286,1606
3287,1593
3288,1631
3289,1637
3290,1616
3291,1610
3292,1647
3293,1664
3294,1648
3295,1629
3296,1642
3297,1674
3298,1659
3299,1641
3300,1648
3301,1669
3302,1652
3303,1642
3304,1639
3305,1671
3306,1669
3307,1649
3308,1634
3309,1658
3310,1664
3311,1663
3312,1660
3313,1682
3314,1685
3315,1651
3316,1642
3317,1663
3318,1684
3319,1675
3320,1667
3321,1681
3322,1701
3323,1685
3324,1666
3325,1671
3326,1705
3327,1682
3328,1673
3329,1681
3330,1712
3331,1708
3332,1702
3333,1690
3334,1713
3335,1718
3336,1698
3337,1701
3338,1728
3339,1742
3340,1727
3341,1711
3342,1734
3343,1754
3344,1737
3345,1728
3346,1743
3347,1765
3348,1742
3349,1724
3350,1735
3351,1761
3352,1755
3353,1744
3354,1747
3355,1771
3356,1757
3357,1749
3358,1739
3359,1769
3360,1774
3361,1770
3362,1771
3363,1791
3364,1797
3365,1765
3366,1751
3367,1767
3368,1781
3369,1777
3370,1760
3371,1767
3372,1799
3373,1791
3374,1791
3375,1791
3376,1808
3377,1790
3378,1783
3379,1788
3380,1813
3381,1809
3382,1802
3383,1791
3384,1818
3385,1829
3386,1808
3387,1775
3388,1804
3389,1821
3390,1809
3391,1797
3392,1812
3393,1828
3394,1818
3395,1806
3396,1822
3397,1840
3398,1826
3399,1809
3400,1818
3401,1843
3402,1828
3403,1833
3404,1857
3405,1904
3406,1909
3407,1920
3408,1922
3409,1947
3410,1943
3411,1931
3412,1931
3413,1975
3414,1999
3415,1968
3416,1914
3417,1894
3418,1885
3419,1866
3420,1866
3421,1872
3422,1872
3423,1849
3424,1823
3425,1820
3426,1818
3427,1791
3428,1785
3429,1790
3430,1813
3431,1797
3432,1779
3433,1781
3434,1813
3435,1807
3436,1798
3437,1789
3438,1809
3439,1803
3440,1773
3441,1742
3442,1735
3443,1771
3444,1901
3445,2192
3446,2676
3447,3411
3448,4095
3449,4095
3450,4095
3451,4095
3452,3429
3453,2677
3454,2095
3455,1793
3456,1707
3457,1741
3458,1765
3459,1831
3460,1851
3461,1841
3462,1822
3463,1840
3464,1827
3465,1793
3466,1779
3467,1810
3468,1830
3469,1808
3470,1797
3471,1811
3472,1842
3473,1829
3474,1803
3475,1816
3476,1849
3477,1845
3478,1831
3479,1815
3480,1870
3481,1878
3482,1859
3483,1871
3484,1907
3485,1911
3486,1911
3487,1922
3488,1949
3489,1950
3490,1939
3491,1943
3492,1979
3493,1998
3494,1991
3495,1969
3496,2005
3497,2064
3498,2069
3499,2070
3500,2094
3501,2132
3502,2141
3503,2153
3504,2182
3505,2240
3506,2263
3507,2258
3508,2275
3509,2352
3510,2384
3511,2403
3512,2420
3513,2471
3514,2491
3515,2498
3516,2479
3517,2508
3518,2523
3519,2506
3520,2474
3521,2431
3522,2384
3523,2297
3524,2202
3525,2119
3526,2057
3527,1959
3528,1875
3529,1805
3530,1755
3531,1696
3532,1647
3533,1589
3534,1597
3535,1571
3536,1533
3537,1510
3538,1527
3539,1526
3540,1493
3541,1488
3542,1504
3543,1517
3544,1496
3545,1483
3546,1495
3547,1517
3548,1506
3549,1498
3550,1513
3551,1535
3552,1522
3553,1507
3554,1508
3555,1535
3556,1535
3557,1525
3558,1535
3559,1574
3560,1581
3561,1565
3562,1556
3563,1588
3564,1589
3565,1583
3566,1584
3567,1615
3568,1626
3569,1610
3570,1587
3571,1611
3572,1643
3573,1636
3574,1631
3575,1632
3576,1653
3577,1643
3578,1630
3579,1645
3580,1670
3581,1657
3582,1648
3583,1647
3584,1680
3585,1669
3586,1658
3587,1655
3588,1680
3589,1674
3590,1660
3591,1649
3592,1670
3593,1674
3594,1649
3595,1639
3596,1663
3597,1682
3598,1679
3599,1671
3600,1678
3601,1685
3602,1677
3603,1671
3604,1680
3605,1715
3606,1701
3607,1696
3608,1683
3609,1716
3610,1717
3611,1697
3612,1691
3613,1719
3614,1715
3615,1695
3616,1693
3617,1726
3618,1743
3619,1719
3620,1714
3621,1735
3622,1744
3623,1722
3624,1687
3625,1712
3626,1747
3627,1744
3628,1738
3629,1731
3630,1754
3631,1755
3632,1743
3633,1785
3634,1776
3635,1757
3636,1745
3637,1717
3638,1763
3639,1776
3640,1757
3641,1746
3642,1775
3643,1783
3644,1767
3645,1754
3646,1772
3647,1793
3648,1791
3649,1769
3650,1773
3651,1790
3652,1781
3653,1782
3654,1790
3655,1808
3656,1793
3657,1785
3658,1793
3659,1817
3660,1805
3661,1791
3662,1787
3663,1821
3664,1827
3665,1803
3666,1781
3667,1806
3668,1823
3669,1810
3670,1806
3671,1817
3672,1833
3673,1820
3674,1807
3675,1813
3676,1841
3677,1825
3678,1811
3679,1808
3680,1841
3681,1827
3682,1827
3683,1820
3684,1840
3685,1832
3686,1834
3687,1856
3688,1911
3689,1950
3690,1947
3691,1935
3692,1936
3693,1941
3694,1936
3695,1956
3696,1999
3697,2027
3698,1979
3699,1936
3700,1915
3701,1909
3702,1878
3703,1871
3704,1875
3705,1875
3706,1841
3707,1811
3708,1802
3709,1831
3710,1823
3711,1806
3712,1802
3713,1826
3714,1825
3715,1803
3716,1805
3717,1840
3718,1843
3719,1819
3720,1794
3721,1815
3722,1829
3723,1808
3724,1775
3725,1749
3726,1808
3727,1950
3728,2267
3729,2770
3730,3602
3731,4095
3732,4095
3733,4095
3734,4095
3735,3321
3736,2606
3737,2075
3738,1750
3739,1744
3740,1763
3741,1783
3742,1840
3743,1870
3744,1859
3745,1843
3746,1847
3747,1843
3748,1808
3749,1791
3750,1802
3751,1823
3752,1817
3753,1812
3754,1829
3755,1854
3756,1841
3757,1825
3758,1826
3759,1863
3760,1866
3761,1857
3762,1847
3763,1877
3764,1879
3765,1856
3766,1859
3767,1901
3768,1924
3769,1919
3770,1926
3771,1958
3772,1969
3773,1954
3774,1927
3775,1946
3776,1997
3777,1998
3778,1997
3779,2027
3780,2080
3781,2086
3782,2090
3783,2109
3784,2145
3785,2151
3786,2167
3787,2193
3788,2256
3789,2277
3790,2300
3791,2325
3792,2386
3793,2409
3794,2418
3795,2429
3796,2473
3797,2507
3798,2511
3799,2503
3800,2526
3801,2548
3802,2512
3803,2465
3804,2415
3805,2368
3806,2279
3807,2185
3808,2112
3809,2055
3810,1959
3811,1870
3812,1797
3813,1761
3814,1699
3815,1643
3816,1600
3817,1594
3818,1559
3819,1531
3820,1488
3821,1503
3822,1513
3823,1491
3824,1490
3825,1498
3826,1523
3827,1507
3828,1493
3829,1502
3830,1517
3831,1513
3832,1502
3833,1507
3834,1531
3835,1515
3836,1515
3837,1519
3838,1535
3839,1535
3840,1535
3841,1518
3842,1558
3843,1584
3844,1584
3845,1568
3846,1584
3847,1606
3848,1600
3849,1600
3850,1615
3851,1635
3852,1610
3853,1602
3854,1621
3855,1655
3856,1638
3857,1625
3858,1626
3859,1661
3860,1652
3861,1641
3862,1636
3863,1668
3864,1676
3865,1651
3866,1645
3867,1678
3868,1676
3869,1661
3870,1651
3871,1670
3872,1680
3873,1666
3874,1657
3875,1669
3876,1685
3877,1660
3878,1623
3879,1631
3880,1672
3881,1667
3882,1665
3883,1671
3884,1685
3885,1670
3886,1664
3887,1666
3888,1694
3889,1681
3890,1678
3891,1692
3892,1714
3893,1712
3894,1691
3895,1680
3896,1703
3897,1721
3898,1707
3899,1680
3900,1696
3901,1720
3902,1712
3903,1714
3904,1715
3905,1742
3906,1734
3907,1721
3908,1727
3909,1746
3910,1734
3911,1728
3912,1726
3913,1748
3914,1748
3915,1744
3916,1727
3917,1747
3918,1746
3919,1731
3920,1730
3921,1762
3922,1774
3923,1762
3924,1744
3925,1760
3926,1794
3927,1775
3928,1773
3929,1776
3930,1794
3931,1786
3932,1780
3933,1792
3934,1808
3935,1784
3936,1776
3937,1781
3938,1802
3939,1797
3940,1791
3941,1788
3942,1808
3943,1808
3944,1794
3945,1789
3946,1809
3947,1815
3948,1799
3949,1792
3950,1811
3951,1826
3952,1815
3953,1805
3954,1817
3955,1835
3956,1813
3957,1808
3958,1813
3959,1840
3960,1819
3961,1801
3962,1811
3963,1840
3964,1831
3965,1825
3966,1813
3967,1841
3968,1840
3969,1819
3970,1826
3971,1846
3972,1867
3973,1871
3974,1890
3975,1936
3976,1970
3977,1951
3978,1919
3979,1920
3980,1962
3981,1956
3982,1969
3983,1999
3984,2003
3985,1959
3986,1904
3987,1874
3988,1894
3989,1889
3990,1872
3991,1856
3992,1871
3993,1856
3994,1823
3995,1809
3996,1820
3997,1805
3998,1787
3999,1791
4000,1817
4001,1829
4002,1804
4003,1803
4004,1811
4005,1838
4006,1822
4007,1807
4008,1811
4009,1826
4010,1783
4011,1741
4012,1754
4013,1918
4014,2217
4015,2657
4016,3329
4017,4095
4018,4095
4019,4095
4020,4095
4021,3508
4022,2751
4023,2142
4024,1791
4025,1712
4026,1776
4027,1801
4028,1823
4029,1845
4030,1878
4031,1855
4032,1818
4033,1790
4034,1821
4035,1809
4036,1791
4037,1793
4038,1831
4039,1827
4040,1823
4041,1821
4042,1846
4043,1845
4044,1830
4045,1798
4046,1829
4047,1870
4048,1878
4049,1872
4050,1889
4051,1904
4052,1895
4053,1894
4054,1915
4055,1941
4056,1934
4057,1905
4058,1909
4059,1958
4060,1964
4061,1952
4062,1963
4063,2006
4064,2017
4065,2019
4066,2031
4067,2075
4068,2094
4069,2101
4070,2110
4071,2172
4072,2192
4073,2192
4074,2214
4075,2253
4076,2290
4077,2305
4078,2335
4079,2373
4080,2419
4081,2421
4082,2437
4083,2475
4084,2515
4085,2515
4086,2519
4087,2521
4088,2527
4089,2484
4090,2416
4091,2339
4092,2302
4093,2230
4094,2128
4095,2023
4096,1961
4097,1893
4098,1808
4099,1723
4100,1683
4101,1651
4102,1595
4103,1535
4104,1535
4105,1535
4106,1509
4107,1456
4108,1485
4109,1495
4110,1472
4111,1456
4112,1449
4113,1485
4114,1482
4115,1467
4116,1481
4117,1505
4118,1495
4119,1484
4120,1486
4121,1510
4122,1510
4123,1491
4124,1478
4125,1509
4126,1535
4127,1535
4128,1527
4129,1535
4130,1584
4131,1570
4132,1562
4133,1567
4134,1600
4135,1585
4136,1583
4137,1583
4138,1617
4139,1610
4140,1600
4141,1598
4142,1638
4143,1639
4144,1616
4145,1616
4146,1646
4147,1648
4148,1628
4149,1600
4150,1633
4151,1664
4152,1649
4153,1648
4154,1660
4155,1680
4156,1659
4157,1631
4158,1629
4159,1662
4160,1659
4161,1650
4162,1642
4163,1673
4164,1667
4165,1663
4166,1675
4167,1697
4168,1680
4169,1664
4170,1663
4171,1682
4172,1681
4173,1674
4174,1655
4175,1682
4176,1706
4177,1686
4178,1680
4179,1687
4180,1705
4181,1690
4182,1685
4183,1701
4184,1721
4185,1701
4186,1693
4187,1692
4188,1717
4189,1712
4190,1706
4191,1705
4192,1733
4193,1728
4194,1709
4195,1711
4196,1744
4197,1744
4198,1726
4199,1718
4200,1744
4201,1755
4202,1741
4203,1727
4204,1734
4205,1763
4206,1739
4207,1735
4208,1743
4209,1763
4210,1746
4211,1746
4212,1750
4213,1777
4214,1774
4215,1758
4216,1745
4217,1774
4218,1767
4219,1763
4220,1770
4221,1792
4222,1785
4223,1769
4224,1752
4225,1779
4226,1805
4227,1786
4228,1775
4229,1776
4230,1791
4231,1792
4232,1771
4233,1779
4234,1807
4235,1791
4236,1780
4237,1790
4238,1810
4239,1799
4240,1789
4241,1783
4242,1819
4243,1817
4244,1795
4245,1795
4246,1818
4247,1819
4248,1808
4249,1796
4250,1815
4251,1815
4252,1798
4253,1803
4254,1813
4255,1838
4256,1817
4257,1799
4258,1812
4259,1841
4260,1834
4261,1839
4262,1857
4263,1910
4264,1931
4265,1930
4266,1921
4267,1939
4268,1926
4269,1917
4270,1911
4271,1977
4272,2000
4273,1950
4274,1903
4275,1883
4276,1874
4277,1859
4278,1854
4279,1871
4280,1869
4281,1837
4282,1825
4283,1824
4284,1818
4285,1795
4286,1779
4287,1779
4288,1819
4289,1808
4290,1801
4291,1803
4292,1825
4293,1819
4294,1805
4295,1791
4296,1822
4297,1823
4298,1789
4299,1757
4300,1761
4301,1846
4302,2041
4303,2409
4304,2975
4305,3893
4306,4095
4307,4095
4308,4095
4309,3984
4310,3132
4311,2423
4312,1931
4313,1744
4314,1725
4315,1767
4316,1798
4317,1843
4318,1844
4319,1847
4320,1840
4321,1847
4322,1823
4323,1792
4324,1781
4325,1808
4326,1818
4327,1795
4328,1779
4329,1809
4330,1830
4331,1820
4332,1815
4333,1840
4334,1867
4335,1845
4336,1824
4337,1814
4338,1865
4339,1867
4340,1872
4341,1885
4342,1909
4343,1903
4344,1907
4345,1892
4346,1934
4347,1954
4348,1941
4349,1938
4350,1968
4351,1985
4352,1989
4353,1996
4354,2023
4355,2047
4356,2039
4357,2041
4358,2069
4359,2134
4360,2155
4361,2168
4362,2192
4363,2240
4364,2256
4365,2279
4366,2314
4367,2372
4368,2387
4369,2399
4370,2416
4371,2473
4372,2505
4373,2491
4374,2494
4375,2521
4376,2526
4377,2496
4378,2459
4379,2416
4380,2352
4381,2254
4382,2147
4383,2064
4384,2001
4385,1921
4386,1840
4387,1776
4388,1741
4389,1665
4390,1618
4391,1584
4392,1582
4393,1535
4394,1507
4395,1483
4396,1509
4397,1489
4398,1465
4399,1454
4400,1479
4401,1488
4402,1469
4403,1434
4404,1458
4405,1479
4406,1478
4407,1491
4408,1509
4409,1527
4410,1509
4411,1505
4412,1513
4413,1530
4414,1410
4415,1520
4416,1506
4417,1535
4418,1553
4419,1535
4420,1584
4421,1581
4422,1588
4423,1570
4424,1566
4425,1602
4426,1616
4427,1601
4428,1597
4429,1618
4430,1641
4431,1611
4432,1599
4433,1601
4434,1634
4435,1623
4436,1634
4437,1643
4438,1674
4439,1645
4440,1646
4441,1639
4442,1664
4443,1647
4444,1639
4445,1611
4446,1655
4447,1662
4448,1649
4449,1633
4450,1650
4451,1648
4452,1643
4453,1658
4454,1682
4455,1695
4456,1677
4457,1665
4458,1666
4459,1687
4460,1671
4461,1653
4462,1669
4463,1697
4464,1681
4465,1680
4466,1677
4467,1712
4468,1697
4469,1680
4470,1687
4471,1718
4472,1709
4473,1683
4474,1690
4475,1729
4476,1734
4477,1707
4478,1702
4479,1721
4480,1731
4481,1713
4482,1712
4483,1729
4484,1744
4485,1719
4486,1714
4487,1733
4488,1760
4489,1743
4490,1730
4491,1725
4492,1763
4493,1759
4494,1741
4495,1723
4496,1746
4497,1765
4498,1746
4499,1744
4500,1763
4501,1774
4502,1757
4503,1729
4504,1745
4505,1767
4506,1744
4507,1751
4508,1771
4509,1791
4510,1771
4511,1773
4512,1776
4513,1808
4514,1795
4515,1782
4516,1769
4517,1793
4518,1797
4519,1787
4520,1777
4521,1803
4522,1808
4523,1791
4524,1789
4525,1809
4526,1812
4527,1790
4528,1795
4529,1825
4530,1841
4531,1825
4532,1809
4533,1807
4534,1829
4535,1824
4536,1823
4537,1827
4538,1847
4539,1829
4540,1811
4541,1822
4542,1840
4543,1826
4544,1819
4545,1791
4546,1835
4547,1847
4548,1847
4549,1867
4550,1922
4551,1966
4552,1961
4553,1946
4554,1940
4555,1939
4556,1932
4557,1954
4558,1987
4559,2009
4560,1967
4561,1901
4562,1859
4563,1892
4564,1879
4565,1875
4566,1881
4567,1893
4568,1866
4569,1818
4570,1799
4571,1813
4572,1810
4573,1803
4574,1795
4575,1822
4576,1821
4577,1808
4578,1801
4579,1827
4580,1841
4581,1819
4582,1821
4583,1839
4584,1842
4585,1790
4586,1754
4587,1733
4588,1872
4589,2127
4590,2546
4591,3179
4592,4095
4593,4095
4594,4095
4595,4095
4596,3724
4597,2891
4598,2255
4599,1847
4600,1735
4601,1764
4602,1808
4603,1822
4604,1859
4605,1876
4606,1855
4607,1840
4608,1837
4609,1842
4610,1823
4611,1813
4612,1817
4613,1839
4614,1831
4615,1818
4616,1802
4617,1840
4618,1853
4619,1840
4620,1838
4621,1871
4622,1873
4623,1872
4624,1862
4625,1886
4626,1893
4627,1889
4628,1902
4629,1935
4630,1945
4631,1931
4632,1930
4633,1942
4634,1967
4635,1957
4636,1954
4637,1979
4638,2016
4639,2011
4640,2006
4641,2029
4642,2065
4643,2070
4644,2075
4645,2093
4646,2143
4647,2169
4648,2179
4649,2202
4650,2256
4651,2282
4652,2293
4653,2320
4654,2378
4655,2416
4656,2416
4657,2432
4658,2471
4659,2512
4660,2512
4661,2523
4662,2533
4663,2537
4664,2481
4665,2434
4666,2375
4667,2336
4668,2256
4669,2160
4670,2073
4671,2013
4672,1929
4673,1840
4674,1744
4675,1712
4676,1682
4677,1613
4678,1575
4679,1570
4680,1561
4681,1520
4682,1487
4683,1479
4684,1499
4685,1472
4686,1473
4687,1490
4688,1505
4689,1481
4690,1463
4691,1463
4692,1497
4693,1494
4694,1489
4695,1489
4696,1514
4697,1516
4698,1511
4699,1491
4700,1520
4701,1535
4702,1525
4703,1527
4704,1535
4705,1568
4706,1563
4707,1559
4708,1578
4709,1605
4710,1590
4711,1582
4712,1585
4713,1607
4714,1611
4715,1607
4716,1600
4717,1635
4718,1628
4719,1617
4720,1631
4721,1659
4722,1650
4723,1629
4724,1631
4725,1671
4726,1666
4727,1642
4728,1614
4729,1635
4730,1643
4731,1644
4732,1643
4733,1655
4734,1666
4735,1651
4736,1644
4737,1663
4738,1683
4739,1674
4740,1658
4741,1648
4742,1676
4743,1677
4744,1666
4745,1655
4746,1670
4747,1661
4748,1658
4749,1657
4750,1692
4751,1688
4752,1660
4753,1664
4754,1699
4755,1715
4756,1699
4757,1698
4758,1712
4759,1722
4760,1702
4761,1694
4762,1697
4763,1712
4764,1699
4765,1703
4766,1717
4767,1742
4768,1730
4769,1712
4770,1712
4771,1743
4772,1742
4773,1730
4774,1722
4775,1753
4776,1744
4777,1714
4778,1709
4779,1737
4780,1754
4781,1731
4782,1734
4783,1750
4784,1767
4785,1753
4786,1742
4787,1758
4788,1777
4789,1753
4790,1744
4791,1754
4792,1787
4793,1779
4794,1771
4795,1764
4796,1793
4797,1790
4798,1786
4799,1783
4800,1806
4801,1801
4802,1781
4803,1787
4804,1808
4805,1807
4806,1782
4807,1779
4808,1799
4809,1807
4810,1791
4811,1787
4812,1798
4813,1819
4814,1796
4815,1780
4816,1774
4817,1806
4818,1808
4819,1811
4820,1806
4821,1839
4822,1833
4823,1824
4824,1795
4825,1826
4826,1856
4827,1855
4828,1887
4829,1937
4830,1959
4831,1933
4832,1915
4833,1915
4834,1943
4835,1943
4836,1963
4837,1984
4838,1985
4839,1929
4840,1892
4841,1887
4842,1902
4843,1877
4844,1867
4845,1850
4846,1853
4847,1837
4848,1813
4849,1801
4850,1814
4851,1808
4852,1789
4853,1794
4854,1814
4855,1826
4856,1807
4857,1808
4858,1833
4859,1843
4860,1821
4861,1808
4862,1808
4863,1811
4864,1760
4865,1744
4866,1846
4867,2125
4868,2527
4869,3131
4870,4030
4871,4095
4872,4095
4873,4095
4874,3583
4875,2853
4876,2261
4877,1868
4878,1727
4879,1748
4880,1794
4881,1806
4882,1811
4883,1847
4884,1861
4885,1840
4886,1835
4887,1828
4888,1833
4889,1814
4890,1805
4891,1804
4892,1834
4893,1826
4894,1809
4895,1812
4896,1842
4897,1845
4898,1845
4899,1851
4900,1875
4901,1874
4902,1871
4903,1870
4904,1903
4905,1910
4906,1897
4907,1910
4908,1934
4909,1959
4910,1937
4911,1927
4912,1941
4913,1973
4914,1971
4915,1977
4916,1998
4917,2036
4918,2032
4919,2032
4920,2060
4921,2098
4922,2103
4923,2114
4924,2137
4925,2189
4926,2194
4927,2195
4928,2236
4929,2289
4930,2322
4931,2334
4932,2352
4933,2398
4934,2446
4935,2450
4936,2465
4937,2496
4938,2529
4939,2512
4940,2505
4941,2505
4942,2510
4943,2450
4944,2375
4945,2309
4946,2253
4947,2154
4948,2047
4949,1956
4950,1904
4951,1856
4952,1763
4953,1712
4954,1693
4955,1651
4956,1601
4957,1566
4958,1535
4959,1530
4960,1492
4961,1479
4962,1486
4963,1502
4964,1473
4965,1485
4966,1489
4967,1515
4968,1500
4969,1488
4970,1478
4971,1520
4972,1525
4973,1516
4974,1511
4975,1535
4976,1535
4977,1529
4978,1519
4979,1554
4980,1568
4981,1535
4982,1554
4983,1582
4984,1597
4985,1584
4986,1535
4987,1555
4988,1606
4989,1603
4990,1597
4991,1602
4992,1625
4993,1616
4994,1612
4995,1600
4996,1642
4997,1644
4998,1627
4999,1637
5000,1665
5001,1664
5002,1652
5003,1646
5004,1655
5005,1665
5006,1648
5007,1631
5008,1641
5009,1662
5010,1650
5011,1661
5012,1671
5013,1683
5014,1662
5015,1651
5016,1658
5017,1680
5018,1665
5019,1662
5020,1659
5021,1680
5022,1681
5023,1671
5024,1677
5025,1697
5026,1689
5027,1678
5028,1659
5029,1693
5030,1703
5031,1681
5032,1683
5033,1719
5034,1730
5035,1709
5036,1680
5037,1685
5038,1725
5039,1725
5040,1713
5041,1729
5042,1745
5043,1727
5044,1726
5045,1722
5046,1738
5047,1728
5048,1719
5049,1718
5050,1758
5051,1755
5052,1744
5053,1728
5054,1751
5055,1753
5056,1744
5057,1745
5058,1765
5059,1776
5060,1759
5061,1754
5062,1774
5063,1791
5064,1766
5065,1770
5066,1773
5067,1783
5068,1776
5069,1767
5070,1777
5071,1812
5072,1805
5073,1795
5074,1783
5075,1809
5076,1810
5077,1793
5078,1791
5079,1821
5080,1823
5081,1798
5082,1788
5083,1809
5084,1822
5085,1797
5086,1799
5087,1808
5088,1827
5089,1822
5090,1806
5091,1818
5092,1846
5093,1825
5094,1815
5095,1819
5096,1841
5097,1836
5098,1822
5099,1808
5100,1850
5101,1847
5102,1830
5103,1851
5104,1904
5105,1920
5106,1915
5107,1909
5108,1927
5109,1939
5110,1938
5111,1943
5112,1977
5113,2011
5114,2007
5115,1983
5116,1936
5117,1920
5118,1878
5119,1866
5120,1882
5121,1917
5122,1887
5123,1856
5124,1841
5125,1858
5126,1840
5127,1809
5128,1790
5129,1811
5130,1826
5131,1826
5132,1826
5133,1839
5134,1852
5135,1831
5136,1828
5137,1835
5138,1851
5139,1830
5140,1810
5141,1807
5142,1793
5143,1843
5144,2041
5145,2411
5146,2966
5147,3827
5148,4095
5149,4095
5150,4095
5151,4063
5152,3261
5153,2523
5154,2009
5155,1775
5156,1738
5157,1776
5158,1841
5159,1882
5160,1872
5161,1865
5162,1866
5163,1857
5164,1818
5165,1803
5166,1808
5167,1834
5168,1829
5169,1837
5170,1853
5171,1872
5172,1855
5173,1841
5174,1840
5175,1862
5176,1866
5177,1860
5178,1872
5179,1904
5180,1907
5181,1886
5182,1882
5183,1904
5184,1920
5185,1904
5186,1919
5187,1937
5188,1955
5189,1954
5190,1947
5191,1965
5192,2000
5193,1998
5194,2005
5195,2027
5196,2036
5197,2045
5198,2064
5199,2081
5200,2114
5201,2128
5202,2141
5203,2153
5204,2199
5205,2233
5206,2253
5207,2271
5208,2320
5209,2364
5210,2395
5211,2422
5212,2455
5213,2494
5214,2493
5215,2498
5216,2517
5217,2538
5218,2498
5219,2480
5220,2463
5221,2431
5222,2352
5223,2262
5224,2157
5225,2096
5226,2014
5227,1918
5228,1840
5229,1782
5230,1729
5231,1669
5232,1607
5233,1584
5234,1567
5235,1527
5236,1503
5237,1506
5238,1519
5239,1491
5240,1494
5241,1482
5242,1491
5243,1473
5244,1462
5245,1451
5246,1484
5247,1484
5248,1472
5249,1473
5250,1467
5251,1490
5252,1492
5253,1482
5254,1511
5255,1520
5256,1508
5257,1505
5258,1526
5259,1535
5260,1529
5261,1499
5262,1535
5263,1571
5264,1568
5265,1587
5266,1604
5267,1618
5268,1595
5269,1591
5270,1598
5271,1626
5272,1615
5273,1601
5274,1578
5275,1616
5276,1628
5277,1618
5278,1623
5279,1648
5280,1653
5281,1635
5282,1635
5283,1649
5284,1648
5285,1648
5286,1643
5287,1654
5288,1678
5289,1655
5290,1647
5291,1650
5292,1664
5293,1651
5294,1635
5295,1643
5296,1673
5297,1653
5298,1648
5299,1648
5300,1667
5301,1660
5302,1659
5303,1663
5304,1684
5305,1680
5306,1664
5307,1666
5308,1699
5309,1703
5310,1680
5311,1678
5312,1684
5313,1698
5314,1680
5315,1661
5316,1651
5317,1691
5318,1708
5319,1705
5320,1717
5321,1734
5322,1714
5323,1696
5324,1706
5325,1733
5326,1730
5327,1713
5328,1698
5329,1726
5330,1741
5331,1714
5332,1710
5333,1737
5334,1743
5335,1712
5336,1716
5337,1733
5338,1756
5339,1744
5340,1747
5341,1758
5342,1776
5343,1760
5344,1757
5345,1750
5346,1776
5347,1767
5348,1767
5349,1776
5350,1796
5351,1797
5352,1781
5353,1776
5354,1796
5355,1793
5356,1778
5357,1782
5358,1809
5359,1817
5360,1795
5361,1803
5362,1823
5363,1831
5364,1806
5365,1807
5366,1823
5367,1839
5368,1817
5369,1803
5370,1805
5371,1813
5372,1808
5373,1821
5374,1822
5375,1835
5376,1820
5377,1815
5378,1828
5379,1872
5380,1887
5381,1904
5382,1914
5383,1934
5384,1932
5385,1922
5386,1934
5387,1962
5388,1993
5389,1988
5390,1963
5391,1935
5392,1903
5393,1861
5394,1858
5395,1866
5396,1881
5397,1872
5398,1840
5399,1806
5400,1813
5401,1805
5402,1790
5403,1783
5404,1801
5405,1798
5406,1792
5407,1774
5408,1793
5409,1800
5410,1781
5411,1785
5412,1809
5413,1831
5414,1806
5415,1760
5416,1731
5417,1750
5418,1795
5419,1966
5420,2307
5421,2838
5422,3616
5423,4095
5424,4095
5425,4095
5426,4065
5427,3292
5428,2559
5429,2062
5430,1776
5431,1709
5432,1757
5433,1822
5434,1851
5435,1847
5436,1850
5437,1859
5438,1858
5439,1825
5440,1808
5441,1803
5442,1815
5443,1808
5444,1802
5445,1804
5446,1834
5447,1826
5448,1822
5449,1834
5450,1859
5451,1842
5452,1835
5453,1841
5454,1872
5455,1881
5456,1872
5457,1874
5458,1903
5459,1905
5460,1897
5461,1903
5462,1920
5463,1943
5464,1936
5465,1931
5466,1955
5467,2000
5468,1997
5469,1991
5470,2002
5471,2032
5472,2030
5473,2036
5474,2057
5475,2109
5476,2124
5477,2131
5478,2159
5479,2203
5480,2222
5481,2240
5482,2262
5483,2315
5484,2352
5485,2370
5486,2405
5487,2453
5488,2494
5489,2494
5490,2510
5491,2529
5492,2550
5493,2523
5494,2489
5495,2444
5496,2432
5497,2365
5498,2274
5499,2189
5500,2125
5501,2029
5502,1935
5503,1852
5504,1807
5505,1733
5506,1671
5507,1619
5508,1606
5509,1595
5510,1535
5511,1518
5512,1519
5513,1520
5514,1497
5515,1471
5516,1463
5517,1489
5518,1475
5519,1478
5520,1490
5521,1511
5522,1499
5523,1499
5524,1495
5525,1511
5526,1510
5527,1505
5528,1483
5529,1520
5530,1523
5531,1513
5532,1507
5533,1535
5534,1535
5535,1535
5536,1535
5537,1570
5538,1596
5539,1578
5540,1573
5541,1579
5542,1594
5543,1584
5544,1597
5545,1603
5546,1623
5547,1609
5548,1614
5549,1616
5550,1648
5551,1641
5552,1633
5553,1629
5554,1649
5555,1649
5556,1637
5557,1613
5558,1642
5559,1655
5560,1653
5561,1656
5562,1674
5563,1682
5564,1657
5565,1626
5566,1643
5567,1670
5568,1666
5569,1665
5570,1664
5571,1680
5572,1661
5573,1649
5574,1633
5575,1669
5576,1678
5577,1681
5578,1678
5579,1703
5580,1697
5581,1679
5582,1678
5583,1709
5584,1711
5585,1691
5586,1687
5587,1709
5588,1718
5589,1695
5590,1698
5591,1721
5592,1702
5593,1715
5594,1712
5595,1713
5596,1731
5597,1712
5598,1713
5599,1711
5600,1738
5601,1744
5602,1737
5603,1712
5604,1742
5605,1744
5606,1737
5607,1745
5608,1774
5609,1776
5610,1755
5611,1735
5612,1757
5613,1776
5614,1758
5615,1753
5616,1776
5617,1797
5618,1777
5619,1765
5620,1759
5621,1791
5622,1783
5623,1778
5624,1792
5625,1819
5626,1797
5627,1774
5628,1777
5629,1815
5630,1813
5631,1798
5632,1799
5633,1818
5634,1808
5635,1799
5636,1806
5637,1819
5638,1829
5639,1803
5640,1807
5641,1834
5642,1818
5643,1824
5644,1810
5645,1813
5646,1827
5647,1813
5648,1815
5649,1825
5650,1853
5651,1863
5652,1875
5653,1893
5654,1925
5655,1933
5656,1911
5657,1911
5658,1937
5659,1949
5660,1958
5661,1975
5662,1997
5663,1987
5664,1923
5665,1885
5666,1879
5667,1887
5668,1867
5669,1877
5670,1866
5671,1869
5672,1817
5673,1796
5674,1776
5675,1809
5676,1793
5677,1791
5678,1791
5679,1815
5680,1813
5681,1815
5682,1813
5683,1822
5684,1811
5685,1808
5686,1800
5687,1807
5688,1807
5689,1758
5690,1739
5691,1840
5692,2112
5693,2523
5694,3122
5695,4074
5696,4095
5697,4095
5698,4095
5699,3779
5700,2990
5701,2339
5702,1886
5703,1725
5704,1760
5705,1798
5706,1824
5707,1836
5708,1863
5709,1872
5710,1854
5711,1840
5712,1846
5713,1835
5714,1813
5715,1809
5716,1827
5717,1840
5718,1815
5719,1821
5720,1833
5721,1906
5722,1839
5723,1835
5724,1831
5725,1867
5726,1870
5727,1858
5728,1860
5729,1893
5730,1904
5731,1904
5732,1904
5733,1937
5734,1939
5735,1936
5736,1934
5737,1963
5738,1987
5739,1982
5740,1968
5741,1991
5742,2025
5743,2025
5744,2039
5745,2067
5746,2095
5747,2083
5748,2099
5749,2134
5750,2179
5751,2201
5752,2224
5753,2256
5754,2303
5755,2319
5756,2320
5757,2352
5758,2409
5759,2427
5760,2438
5761,2470
5762,2511
5763,2533
5764,2513
5765,2503
5766,2496
5767,2491
5768,2439
5769,2368
5770,2285
5771,2230
5772,2152
5773,2066
5774,1975
5775,1924
5776,1840
5777,1773
5778,1714
5779,1666
5780,1633
5781,1574
5782,1535
5783,1535
5784,1535
5785,1520
5786,1505
5787,1505
5788,1514
5789,1491
5790,1475
5791,1487
5792,1511
5793,1509
5794,1491
5795,1490
5796,1516
5797,1511
5798,1497
5799,1507
5800,1535
5801,1534
5802,1527
5803,1517
5804,1535
5805,1555
5806,1535
5807,1535
5808,1572
5809,1584
5810,1571
5811,1583
5812,1602
5813,1610
5814,1595
5815,1600
5816,1616
5817,1619
5818,1599
5819,1589
5820,1600
5821,1630
5822,1631
5823,1630
5824,1633
5825,1662
5826,1653
5827,1653
5828,1647
5829,1665
5830,1652
5831,1646
5832,1646
5833,1664
5834,1662
5835,1641
5836,1620
5837,1655
5838,1681
5839,1667
5840,1650
5841,1663
5842,1673
5843,1654
5844,1647
5845,1656
5846,1675
5847,1655
5848,1648
5849,1650
5850,1682
5851,1680
5852,1666
5853,1663
5854,1682
5855,1681
5856,1655
5857,1643
5858,1670
5859,1684
5860,1669
5861,1678
5862,1702
5863,1701
5864,1681
5865,1680
5866,1695
5867,1707
5868,1697
5869,1686
5870,1692
5871,1719
5872,1703
5873,1697
5874,1712
5875,1728
5876,1711
5877,1699
5878,1695
5879,1716
5880,1711
5881,1707
5882,1713
5883,1745
5884,1734
5885,1719
5886,1728
5887,1766
5888,1749
5889,1721
5890,1712
5891,1738
5892,1747
5893,1728
5894,1731
5895,1741
5896,1758
5897,1753
5898,1742
5899,1735
5900,1761
5901,1764
5902,1764
5903,1766
5904,1789
5905,1786
5906,1767
5907,1762
5908,1783
5909,1782
5910,1776
5911,1775
5912,1789
5913,1791
5914,1798
5915,1808
5916,1866
5917,1900
5918,1895
5919,1871
5920,1871
5921,1889
5922,1898
5923,1907
5924,1942
5925,1963
5926,1906
5927,1851
5928,1838
5929,1855
5930,1846
5931,1840
5932,1802
5933,1822
5934,1809
5935,1789
5936,1776
5937,1773
5938,1775
5939,1758
5940,1732
5941,1745
5942,1779
5943,1773
5944,1771
5945,1792
5946,1798
5947,1776
5948,1776
5949,1779
5950,1785
5951,1696
5952,1731
5953,1723
5954,1857
5955,2101
5956,2529
5957,3154
5958,4095
5959,4095
5960,4095
5961,4095
5962,3504
5963,2769
5964,2192
5965,1828
5966,1714
5967,1742
5968,1774
5969,1783
5970,1807
5971,1843
5972,1840
5973,1817
5974,1808
5975,1821
5976,1798
5977,1793
5978,1790
5979,1818
5980,1795
5981,1791
5982,1779
5983,1831
5984,1841
5985,1823
5986,1814
5987,1835
5988,1831
5989,1823
5990,1815
5991,1856
5992,1885
5993,1872
5994,1850
5995,1858
5996,1903
5997,1895
5998,1866
5999,1859
6000,1914
6001,1927
6002,1934
6003,1951
6004,1984
6005,1970
6006,1979
6007,1994
6008,2031
6009,2034
6010,2055
6011,2066
6012,2115
6013,2138
6014,2135
6015,2160
6016,2193
6017,2238
6018,2250
6019,2257
6020,2301
6021,2353
6022,2364
6023,2370
6024,2391
6025,2437
6026,2448
6027,2431
6028,2414
6029,2427
6030,2395
6031,2336
6032,2250
6033,2209
6034,2144
6035,2055
6036,1955
6037,1891
6038,1827
6039,1737
6040,1664
6041,1637
6042,1602
6043,1535
6044,1488
6045,1472
6046,1475
6047,1458
6048,1451
6049,1438
6050,1449
6051,1423
6052,1405
6053,1403
6054,1430
6055,1422
6056,1397
6057,1392
6058,1432
6059,1451
6060,1439
6061,1415
6062,1433
6063,1445
6064,1424
6065,1408
6066,1424
6067,1453
6068,1460
6069,1456
6070,1479
6071,1511
6072,1499
6073,1493
6074,1494
6075,1507
6076,1505
6077,1494
6078,1488
6079,1535
6080,1535
6081,1520
6082,1515
6083,1559
6084,1571
6085,1562
6086,1535
6087,1575
6088,1581
6089,1535
6090,1535
6091,1535
6092,1573
6093,1581
6094,1581
6095,1589
6096,1610
6097,1586
6098,1567
6099,1575
6100,1600
6101,1594
6102,1581
6103,1573
6104,1596
6105,1584
6106,1567
6107,1575
6108,1606
6109,1607
6110,1591
6111,1535
6112,1583
6113,1605
6114,1589
6115,1565
6116,1580
6117,1602
6118,1594
6119,1575
6120,1597
6121,1631
6122,1633
6123,1600
6124,1589
6125,1630
6126,1638
6127,1610
6128,1597
6129,1616
6130,1611
6131,1587
6132,1558
6133,1611
6134,1641
6135,1626
6136,1601
6137,1622
6138,1628
6139,1610
6140,1599
6141,1629
6142,1670
6143,1650
6144,1614
6145,1627
6146,1666
6147,1658
6148,1647
6149,1622
6150,1667
6151,1663
6152,1629
6153,1610
6154,1657
6155,1673
6156,1626
6157,1646
6158,1690
6159,1721
6160,1722
6161,1745
6162,1792
6163,1803
6164,1769
6165,1751
6166,1786
6167,1833
6168,1841
6169,1818
6170,1808
6171,1795
6172,1758
6173,1718
6174,1703
6175,1751
6176,1755
6177,1715
6178,1680
6179,1706
6180,1699
6181,1667
6182,1660
6183,1686
6184,1703
6185,1688
6186,1639
6187,1689
6188,1693
6189,1691
6190,1668
6191,1696
6192,1727
6193,1718
6194,1695
6195,1685
6196,1690
6197,1663
6198,1684
6199,1883
6200,2314
6201,2854
6202,3616
6203,4095
6204,4095
6205,4095
6206,3543
6207,2801
6208,2285
6209,1904
6210,1706
6211,1616
6212,1670
6213,1728
6214,1715
6215,1712
6216,1762
6217,1808
6218,1840
6219,1725
6220,1726
6221,1786
6222,1790
6223,1765
6224,1774
6225,1808
6226,1798
6227,1759
6228,1755
6229,1818
6230,1823
6231,1802
6232,1797
6233,1850
6234,1872
6235,1853
6236,1826
6237,1873
6238,1915
6239,1883
6240,1846
6241,1875
6242,1922
6243,1910
6244,1887
6245,1921
6246,1973
6247,1967
6248,1936
6249,1963
6250,2032
6251,2064
6252,2026
6253,2012
6254,2079
6255,2096
6256,2094
6257,2057
6258,2139
6259,2198
6260,2212
6261,2203
6262,2261
6263,2314
6264,2320
6265,2320
6266,2381
6267,2450
6268,2451
6269,2430
6270,2455
6271,2512
6272,2501
6273,2445
6274,2427
6275,2427
6276,2351
6277,2242
6278,2147
6279,2128
6280,2070
6281,1956
6282,1841
6283,1808
6284,1763
6285,1696
6286,1627
6287,1629
6288,1622
6289,1582
6290,1524
6291,1556
6292,1597
6293,1563
6294,1500
6295,1514
6296,1581
6297,1574
6298,1527
6299,1519
6300,1570
6301,1577
6302,1535
6303,1534
6304,1587
6305,1605
6306,1576
6307,1520
6308,1570
6309,1590
6310,1578
6311,1535
6312,1587
6313,1623
6314,1622
6315,1568
6316,1597
6317,1653
6318,1654
6319,1620
6320,1648
6321,1691
6322,1680
6323,1620
6324,1606
6325,1676
6326,1703
6327,1677
6328,1680
6329,1737
6330,1734
6331,1711
6332,1694
6333,1747
6334,1779
6335,1739
6336,1676
6337,1709
6338,1735
6339,1719
6340,1701
6341,1731
6342,1771
6343,1744
6344,1697
6345,1706
6346,1742
6347,1730
6348,1696
6349,1701
6350,1772
6351,1775
6352,1733
6353,1701
6354,1740
6355,1742
6356,1771
6357,1713
6358,1776
6359,1792
6360,1750
6361,1691
6362,1725
6363,1769
6364,1763
6365,1719
6366,1765
6367,1809
6368,1791
6369,1722
6370,1728
6371,1787
6372,1813
6373,1776
6374,1772
6375,1809
6376,1808
6377,1773
6378,1753
6379,1807
6380,1821
6381,1791
6382,1769
6383,1820
6384,1838
6385,1743
6386,1792
6387,1837
6388,1863
6389,1840
6390,1817
6391,1862
6392,1873
6393,1840
6394,1815
6395,1828
6396,1871
6397,1862
6398,1827
6399,1834
6400,1872
6401,1873
6402,1871
6403,1890
6404,1968
6405,1999
6406,1979
6407,1946
6408,1982
6409,1993
6410,1969
6411,1971
6412,2031
6413,2059
6414,2011
6415,1904
6416,1902
6417,1942
6418,1931
6419,1886
6420,1895
6421,1925
6422,1904
6423,1866
6424,1854
6425,1874
6426,1857
6427,1811
6428,1803
6429,1854
6430,1872
6431,1846
6432,1827
6433,1871
6434,1879
6435,1862
6436,1813
6437,1855
6438,1891
6439,1861
6440,1791
6441,1794
6442,1857
6443,2013
6444,2323
6445,2847
6446,3700
6447,4095
6448,4095
6449,4095
6450,4095
6451,3473
6452,2647
6453,2064
6454,1793
6455,1738
6456,1757
6457,1802
6458,1879
6459,1906
6460,1891
6461,1841
6462,1872
6463,1890
6464,1862
6465,1827
6466,1856
6467,1881
6468,1867
6469,1815
6470,1825
6471,1886
6472,1889
6473,1856
6474,1864
6475,1906
6476,1903
6477,1861
6478,1846
6479,1910
6480,1935
6481,1899
6482,1872
6483,1941
6484,1963
6485,1951
6486,1936
6487,1981
6488,2000
6489,1986
6490,1963
6491,1995
6492,2037
6493,2043
6494,2007
6495,2047
6496,2113
6497,2125
6498,2107
6499,2132
6500,2198
6501,2214
6502,2187
6503,2199
6504,2288
6505,2325
6506,2326
6507,2337
6508,2400
6509,2435
6510,2445
6511,2445
6512,2512
6513,2555
6514,2548
6515,2522
6516,2541
6517,2544
6518,2496
6519,2407
6520,2380
6521,2337
6522,2250
6523,2125
6524,2047
6525,2016
6526,1935
6527,1840
6528,1770
6529,1745
6530,1700
6531,1621
6532,1573
6533,1594
6534,1589
6535,1529
6536,1488
6537,1535
6538,1554
6539,1523
6540,1487
6541,1524
6542,1535
6543,1534
6544,1495
6545,1510
6546,1535
6547,1531
6548,1485
6549,1502
6550,1535
6551,1558
6552,1532
6553,1582
6554,1570
6555,1573
6556,1526
6557,1505
6558,1583
6559,1603
6560,1574
6561,1555
6562,1600
6563,1621
6564,1601
6565,1566
6566,1605
6567,1631
6568,1622
6569,1601
6570,1628
6571,1661
6572,1645
6573,1615
6574,1631
6575,1668
6576,1664
6577,1616
6578,1624
6579,1690
6580,1697
6581,1663
6582,1661
6583,1701
6584,1703
6585,1676
6586,1657
6587,1679
6588,1689
6589,1677
6590,1627
6591,1664
6592,1703
6593,1682
6594,1648
6595,1674
6596,1701
6597,1691
6598,1669
6599,1690
6600,1725
6601,1719
6602,1681
6603,1677
6604,1718
6605,1723
6606,1685
6607,1671
6608,1712
6609,1710
6610,1697
6611,1666
6612,1712
6613,1729
6614,1702
6615,1678
6616,1715
6617,1739
6618,1719
6619,1680
6620,1711
6621,1743
6622,1735
6623,1707
6624,1718
6625,1751
6626,1742
6627,1703
6628,1712
6629,1761
6630,1758
6631,1733
6632,1723
6633,1765
6634,1775
6635,1742
6636,1719
6637,1755
6638,1759
6639,1755
6640,1739
6641,1782
6642,1792
6643,1776
6644,1744
6645,1766
6646,1790
6647,1780
6648,1745
6649,1758
6650,1789
6651,1785
6652,1759
6653,1771
6654,1823
6655,1825
6656,1783
6657,1762
6658,1811
6659,1821
6660,1804
6661,1795
6662,1838
6663,1857
6664,1862
6665,1869
6666,1920
6667,1937
6668,1904
6669,1870
6670,1906
6671,1954
6672,1955
6673,1935
6674,1935
6675,1936
6676,1893
6677,1815
6678,1805
6679,1854
6680,1872
6681,1853
6682,1827
6683,1841
6684,1811
6685,1776
6686,1749
6687,1793
6688,1801
6689,1782
6690,1739
6691,1776
6692,1802
6693,1792
6694,1775
6695,1798
6696,1808
6697,1797
6698,1775
6699,1780
6700,1790
6701,1751
6702,1722
6703,1839
6704,2128
6705,2549
6706,3127
6707,4011
6708,4095
6709,4095
6710,4095
6711,3597
6712,2876
6713,2265
6714,1842
6715,1685
6716,1733
6717,1808
6718,1823
6719,1805
6720,1849
6721,1882
6722,1846
6723,1783
6724,1776
6725,1810
6726,1811
6727,1792
6728,1810
6729,1840
6730,1813
6731,1801
6732,1803
6733,1840
6734,1845
6735,1820
6736,1808
6737,1858
6738,1866
6739,1857
6740,1818
6741,1872
6742,1899
6743,1893
6744,1863
6745,1904
6746,1937
6747,1929
6748,1890
6749,1931
6750,1986
6751,1981
6752,1955
6753,1973
6754,2017
6755,2027
6756,2025
6757,2039
6758,2096
6759,2105
6760,2096
6761,2117
6762,2187
6763,2223
6764,2207
6765,2219
6766,2298
6767,2341
6768,2339
6769,2338
6770,2400
6771,2453
6772,2463
6773,2447
6774,2487
6775,2533
6776,2538
6777,2512
6778,2496
6779,2478
6780,2410
6781,2311
6782,2231
6783,2189
6784,2107
6785,2002
6786,1904
6787,1869
6788,1807
6789,1724
6790,1660
6791,1662
6792,1640
6793,1585
6794,1531
6795,1533
6796,1534
6797,1504
6798,1488
6799,1511
6800,1535
6801,1520
6802,1459
6803,1465
6804,1507
6805,1520
6806,1502
6807,1514
6808,1535
6809,1535
6810,1517
6811,1514
6812,1563
6813,1567
6814,1562
6815,1525
6816,1564
6817,1584
6818,1575
6819,1535
6820,1584
6821,1603
6822,1605
6823,1584
6824,1605
6825,1623
6826,1606
6827,1582
6828,1597
6829,1645
6830,1633
6831,1603
6832,1614
6833,1664
6834,1668
6835,1633
6836,1616
6837,1664
6838,1679
6839,1656
6840,1647
6841,1679
6842,1680
6843,1648
6844,1630
6845,1670
6846,1686
6847,1679
6848,1660
6849,1680
6850,1707
6851,1683
6852,1661
6853,1679
6854,1708
6855,1689
6856,1664
6857,1681
6858,1717
6859,1700
6860,1675
6861,1651
6862,1698
6863,1699
6864,1686
6865,1671
6866,1713
6867,1715
6868,1680
6869,1654
6870,1696
6871,1719
6872,1714
6873,1694
6874,1722
6875,1744
6876,1728
6877,1682
6878,1697
6879,1734
6880,1721
6881,1709
6882,1712
6883,1744
6884,1739
6885,1712
6886,1698
6887,1744
6888,1751
6889,1732
6890,1710
6891,1757
6892,1787
6893,1774
6894,1741
6895,1764
6896,1795
6897,1761
6898,1724
6899,1753
6900,1777
6901,1763
6902,1744
6903,1765
6904,1783
6905,1776
6906,1745
6907,1750
6908,1782
6909,1782
6910,1771
6911,1771
6912,1802
6913,1801
6914,1789
6915,1769
6916,1806
6917,1805
6918,1782
6919,1766
6920,1802
6921,1808
6922,1795
6923,1755
6924,1785
6925,1826
6926,1836
6927,1808
6928,1815
6929,1839
6930,1830
6931,1795
6932,1808
6933,1871
6934,1896
6935,1903
6936,1909
6937,1955
6938,1963
6939,1927
6940,1895
6941,1943
6942,1977
6943,1985
6944,1962
6945,1950
6946,1920
6947,1876
6948,1828
6949,1853
6950,1872
6951,1856
6952,1819
6953,1819
6954,1840
6955,1819
6956,1776
6957,1775
6958,1808
6959,1797
6960,1808
6961,1790
6962,1836
6963,1834
6964,1812
6965,1778
6966,1808
6967,1823
6968,1811
6969,1795
6970,1802
6971,1788
6972,1769
6973,1808
6974,2063
6975,2487
6976,3050
6977,3891
6978,4095
6979,4095
6980,4095
6981,3763
6982,2986
6983,2375
6984,1924
6985,1725
6986,1713
6987,1791
6988,1835
6989,1847
6990,1853
6991,1875
6992,1856
6993,1829
6994,1797
6995,1826
6996,1833
6997,1814
6998,1793
6999,1812
7000,1833
7001,1831
7002,1805
7003,1837
7004,1861
7005,1853
7006,1840
7007,1854
7008,1883
7009,1886
7010,1867
7011,1858
7012,1904
7013,1906
7014,1891
7015,1882
7016,1920
7017,1893
7018,1935
7019,1911
7020,1957
7021,1983
7022,1975
7023,1963
7024,1993
7025,2014
7026,2022
7027,2010
7028,2038
7029,2096
7030,2118
7031,2114
7032,2133
7033,2192
7034,2221
7035,2240
7036,2272
7037,2321
7038,2339
7039,2352
7040,2371
7041,2430
7042,2478
7043,2476
7044,2470
7045,2506
7046,2523
7047,2514
7048,2449
7049,2448
7050,2425
7051,2356
7052,2256
7053,2195
7054,2133
7055,2029
7056,1910
7057,1846
7058,1827
7059,1776
7060,1709
7061,1659
7062,1641
7063,1600
7064,1561
7065,1520
7066,1535
7067,1529
7068,1511
7069,1481
7070,1497
7071,1506
7072,1477
7073,1457
7074,1479
7075,1503
7076,1488
7077,1482
7078,1511
7079,1531
7080,1515
7081,1477
7082,1488
7083,1529
7084,1535
7085,1525
7086,1521
7087,1535
7088,1553
7089,1535
7090,1531
7091,1578
7092,1587
7093,1582
7094,1582
7095,1607
7096,1600
7097,1595
7098,1583
7099,1613
7100,1637
7101,1635
7102,1606
7103,1638
7104,1661
7105,1648
7106,1639
7107,1655
7108,1674
7109,1653
7110,1649
7111,1648
7112,1673
7113,1666
7114,1644
7115,1626
7116,1661
7117,1661
7118,1645
7119,1639
7120,1671
7121,1682
7122,1673
7123,1643
7124,1666
7125,1680
7126,1674
7127,1662
7128,1682
7129,1711
7130,1695
7131,1675
7132,1687
7133,1699
7134,1689
7135,1649
7136,1648
7137,1695
7138,1701
7139,1680
7140,1681
7141,1712
7142,1716
7143,1711
7144,1694
7145,1712
7146,1713
7147,1712
7148,1679
7149,1709
7150,1732
7151,1723
7152,1711
7153,1734
7154,1754
7155,1735
7156,1718
7157,1733
7158,1750
7159,1734
7160,1712
7161,1727
7162,1754
7163,1748
7164,1743
7165,1743
7166,1773
7167,1756
7168,1743
7169,1741
7170,1776
7171,1775
7172,1757
7173,1742
7174,1763
7175,1776
7176,1757
7177,1745
7178,1770
7179,1793
7180,1792
7181,1767
7182,1775
7183,1793
7184,1781
7185,1753
7186,1774
7187,1808
7188,1803
7189,1782
7190,1775
7191,1809
7192,1815
7193,1787
7194,1761
7195,1806
7196,1822
7197,1813
7198,1794
7199,1811
7200,1821
7201,1801
7202,1777
7203,1776
7204,1823
7205,1814
7206,1799
7207,1811
7208,1834
7209,1823
7210,1808
7211,1829
7212,1850
7213,1841
7214,1822
7215,1840
7216,1891
7217,1920
7218,1931
7219,1935
7220,1949
7221,1935
7222,1907
7223,1888
7224,1957
7225,1983
7226,1979
7227,1936
7228,1920
7229,1898
7230,1870
7231,1845
7232,1867
7233,1885
7234,1861
7235,1810
7236,1809
7237,1845
7238,1838
7239,1789
7240,1776
7241,1799
7242,1803
7243,1789
7244,1777
7245,1813
7246,1819
7247,1789
7248,1786
7249,1837
7250,1834
7251,1806
7252,1769
7253,1766
7254,1769
7255,1840
7256,2033
7257,2438
7258,3011
7259,3837
7260,4095
7261,4095
7262,4095
7263,3762
7264,2992
7265,2366
7266,1935
7267,1737
7268,1717
7269,1749
7270,1826
7271,1846
7272,1857
7273,1851
7274,1873
7275,1856
7276,1814
7277,1790
7278,1817
7279,1819
7280,1800
7281,1784
7282,1803
7283,1835
7284,1843
7285,1819
7286,1840
7287,1878
7288,1863
7289,1836
7290,1853
7291,1889
7292,1886
7293,1868
7294,1871
7295,1904
7296,1903
7297,1902
7298,1899
7299,1945
7300,1957
7301,1936
7302,1915
7303,1959
7304,1981
7305,1975
7306,1955
7307,1987
7308,2035
7309,2059
7310,2062
7311,2092
7312,2128
7313,2131
7314,2135
7315,2140
7316,2210
7317,2244
7318,2255
7319,2273
7320,2342
7321,2364
7322,2371
7323,2383
7324,2462
7325,2526
7326,2559
7327,2621
7328,2656
7329,2602
7330,2495
7331,2413
7332,2395
7333,2358
7334,2262
7335,2166
7336,2098
7337,2045
7338,1960
7339,1871
7340,1811
7341,1778
7342,1712
7343,1637
7344,1600
7345,1614
7346,1593
7347,1554
7348,1521
7349,1535
7350,1513
7351,1503
7352,1472
7353,1499
7354,1517
7355,1493
7356,1497
7357,1520
7358,1525
7359,1497
7360,1475
7361,1482
7362,1509
7363,1520
7364,1506
7365,1514
7366,1557
7367,1535
7368,1514
7369,1534
7370,1584
7371,1595
7372,1600
7373,1585
7374,1596
7375,1565
7376,1533
7377,1517
7378,1567
7379,1585
7380,1593
7381,1584
7382,1602
7383,1617
7384,1613
7385,1600
7386,1629
7387,1660
7388,1648
7389,1637
7390,1647
7391,1665
7392,1652
7393,1636
7394,1627
7395,1665
7396,1658
7397,1641
7398,1622
7399,1677
7400,1680
7401,1648
7402,1627
7403,1661
7404,1665
7405,1655
7406,1632
7407,1660
7408,1693
7409,1668
7410,1648
7411,1670
7412,1701
7413,1698
7414,1687
7415,1680
7416,1701
7417,1690
7418,1655
7419,1652
7420,1696
7421,1707
7422,1691
7423,1681
7424,1710
7425,1713
7426,1706
7427,1676
7428,1705
7429,1715
7430,1719
7431,1705
7432,1729
7433,1731
7434,1711
7435,1691
7436,1716
7437,1750
7438,1744
7439,1728
7440,1726
7441,1738
7442,1725
7443,1727
7444,1733
7445,1759
7446,1751
7447,1744
7448,1744
7449,1776
7450,1766
7451,1744
7452,1723
7453,1754
7454,1773
7455,1756
7456,1728
7457,1750
7458,1767
7459,1743
7460,1749
7461,1769
7462,1786
7463,1770
7464,1742
7465,1764
7466,1808
7467,1799
7468,1779
7469,1782
7470,1809
7471,1806
7472,1781
7473,1771
7474,1791
7475,1793
7476,1801
7477,1795
7478,1817
7479,1811
7480,1792
7481,1777
7482,1795
7483,1808
7484,1805
7485,1805
7486,1859
7487,1901
7488,1904
7489,1892
7490,1898
7491,1920
7492,1917
7493,1904
7494,1921
7495,1977
7496,1965
7497,1904
7498,1865
7499,1857
7500,1847
7501,1829
7502,1815
7503,1846
7504,1845
7505,1813
7506,1786
7507,1799
7508,1808
7509,1787
7510,1763
7511,1787
7512,1802
7513,1790
7514,1744
7515,1761
7516,1798
7517,1794
7518,1776
7519,1793
7520,1817
7521,1794
7522,1751
7523,1722
7524,1786
7525,1940
7526,2231
7527,2703
7528,3446
7529,4095
7530,4095
7531,4095
7532,3933
7533,3205
7534,2553
7535,2064
7536,1823
7537,1762
7538,1766
7539,1766
7540,1791
7541,1837
7542,1843
7543,1840
7544,1839
7545,1847
7546,1821
7547,1787
7548,1775
7549,1815
7550,1823
7551,1796
7552,1794
7553,1833
7554,1840
7555,1839
7556,1819
7557,1854
7558,1870
7559,1860
7560,1841
7561,1873
7562,1892
7563,1883
7564,1855
7565,1882
7566,1931
7567,1912
7568,1894
7569,1904
7570,1943
7571,1948
7572,1938
7573,1943
7574,1986
7575,1993
7576,2000
7577,2001
7578,2042
7579,2057
7580,2047
7581,2057
7582,2103
7583,2130
7584,2144
7585,2147
7586,2192
7587,2253
7588,2271
7589,2277
7590,2320
7591,2362
7592,2375
7593,2372
7594,2406
7595,2464
7596,2481
7597,2475
7598,2481
7599,2503
7600,2475
7601,2431
7602,2365
7603,2320
7604,2242
7605,2155
7606,2068
7607,2009
7608,1935
7609,1858
7610,1769
7611,1733
7612,1699
7613,1637
7614,1591
7615,1584
7616,1579
7617,1530
7618,1488
7619,1498
7620,1533
7621,1521
7622,1498
7623,1499
7624,1527
7625,1520
7626,1510
7627,1499
7628,1532
7629,1532
7630,1526
7631,1516
7632,1535
7633,1535
7634,1532
7635,1523
7636,1559
7637,1575
7638,1535
7639,1533
7640,1571
7641,1603
7642,1602
7643,1595
7644,1604
7645,1641
7646,1616
7647,1584
7648,1601
7649,1630
7650,1634
7651,1631
7652,1633
7653,1658
7654,1667
7655,1659
7656,1623
7657,1664
7658,1671
7659,1666
7660,1633
7661,1674
7662,1699
7663,1684
7664,1663
7665,1681
7666,1689
7667,1677
7668,1665
7669,1670
7670,1683
7671,1661
7672,1637
7673,1646
7674,1686
7675,1680
7676,1661
7677,1661
7678,1683
7679,1685
7680,1665
7681,1655
7682,1697
7683,1698
7684,1691
7685,1685
7686,1708
7687,1712
7688,1695
7689,1678
7690,1701
7691,1718
7692,1697
7693,1673
7694,1690
7695,1717
7696,1712
7697,1695
7698,1695
7699,1728
7700,1716
7701,1680
7702,1680
7703,1725
7704,1733
7705,1725
7706,1712
7707,1763
7708,1755
7709,1741
7710,1729
7711,1749
7712,1744
7713,1738
7714,1731
7715,1761
7716,1766
7717,1755
7718,1728
7719,1738
7720,1771
7721,1759
7722,1751
7723,1767
7724,1795
7725,1781
7726,1760
7727,1761
7728,1793
7729,1783
7730,1782
7731,1782
7732,1802
7733,1793
7734,1779
7735,1773
7736,1808
7737,1818
7738,1809
7739,1759
7740,1790
7741,1824
7742,1822
7743,1804
7744,1819
7745,1838
7746,1809
7747,1788
7748,1808
7749,1840
7750,1823
7751,1808
7752,1808
7753,1837
7754,1844
7755,1845
7756,1851
7757,1918
7758,1945
7759,1936
7760,1919
7761,1936
7762,1921
7763,1938
7764,1966
7765,1996
7766,1986
7767,1925
7768,1863
7769,1869
7770,1888
7771,1868
7772,1854
7773,1859
7774,1864
7775,1838
7776,1795
7777,1792
7778,1820
7779,1815
7780,1807
7781,1795
7782,1819
7783,1808
7784,1795
7785,1771
7786,1792
7787,1815
7788,1807
7789,1799
7790,1815
7791,1811
7792,1779
7793,1747
7794,1814
7795,2002
7796,2329
7797,2800
7798,3569
7799,4095
7800,4095
7801,4095
7802,4026
7803,3273
7804,2539
7805,1975
7806,1711
7807,1709
7808,1770
7809,1812
7810,1856
7811,1899
7812,1902
7813,1853
7814,1807
7815,1822
7816,1836
7817,1823
7818,1806
7819,1824
7820,1850
7821,1829
7822,1811
7823,1840
7824,1867
7825,1851
7826,1850
7827,1851
7828,1879
7829,1881
7830,1858
7831,1845
7832,1890
7833,1906
7834,1890
7835,1890
7836,1922
7837,1936
7838,1927
7839,1927
7840,1965
7841,1986
7842,1981
7843,1968
7844,1987
7845,2015
7846,2018
7847,1996
7848,2022
7849,2079
7850,2093
7851,2098
7852,2125
7853,2165
7854,2178
7855,2180
7856,2221
7857,2283
7858,2303
7859,2319
7860,2321
7861,2384
7862,2423
7863,2444
7864,2461
7865,2509
7866,2526
7867,2509
7868,2495
7869,2509
7870,2495
7871,2434
7872,2371
7873,2327
7874,2277
7875,2180
7876,2075
7877,1992
7878,1927
7879,1853
7880,1795
7881,1733
7882,1709
7883,1652
7884,1594
7885,1526
7886,1535
7887,1555
7888,1535
7889,1517
7890,1533
7891,1535
7892,1519
7893,1479
7894,1502
7895,1520
7896,1502
7897,1485
7898,1502
7899,1535
7900,1523
7901,1507
7902,1534
7903,1531
7904,1521
7905,1510
7906,1509
7907,1563
7908,1558
7909,1535
7910,1535
7911,1584
7912,1584
7913,1573
7914,1557
7915,1579
7916,1599
7917,1598
7918,1584
7919,1615
7920,1640
7921,1629
7922,1600
7923,1623
7924,1649
7925,1642
7926,1619
7927,1620
7928,1658
7929,1663
7930,1649
7931,1646
7932,1662
7933,1657
7934,1658
7935,1643
7936,1679
7937,1680
7938,1664
7939,1648
7940,1738
7941,1709
7942,1683
7943,1664
7944,1680
7945,1695
7946,1680
7947,1675
7948,1680
7949,1693
7950,1680
7951,1675
7952,1687
7953,1715
7954,1707
7955,1680
7956,1678
7957,1707
7958,1709
7959,1694
7960,1671
7961,1726
7962,1733
7963,1723
7964,1717
7965,1745
7966,1745
7967,1728
7968,1714
7969,1745
7970,1758
7971,1735
7972,1711
7973,1741
7974,1776
7975,1756
7976,1741
7977,1757
7978,1784
7979,1773
7980,1755
7981,1765
7982,1783
7983,1767
7984,1770
7985,1770
7986,1796
7987,1805
7988,1775
7989,1762
7990,1794
7991,1801
7992,1789
7993,1753
7994,1787
7995,1817
7996,1801
7997,1789
7998,1808
7999,1828
8000,1808
8001,1796
8002,1808
8003,1818
8004,1809
8005,1775
8006,1779
8007,1829
8008,1829
8009,1808
8010,1802
8011,1837
8012,1836
8013,1823
8014,1808
8015,1839
8016,1831
8017,1814
8018,1805
8019,1837
8020,1842
8021,1835
8022,1825
8023,1838
8024,1847
8025,1837
8026,1834
8027,1835
8028,1845
8029,1851
8030,1821
8031,1803
8032,1839
8033,1831
8034,1832
8035,1837
8036,1883
8037,1901
8038,1904
8039,1924
8040,1967
8041,1963
8042,1943
8043,1919
8044,1959
8045,1989
8046,1989
8047,1966
8048,1951
8049,1930
8050,1893
8051,1853
8052,1859
8053,1891
8054,1875
8055,1865
8056,1856
8057,1859
8058,1840
8059,1805
8060,1787
8061,1819
8062,1818
8063,1809
8064,1806
8065,1813
8066,1817
8067,1813
8068,1793
8069,1813
8070,1814
8071,1808
8072,1771
8073,1773
8074,1777
8075,1789
8076,1887
8077,2160
8078,2621
8079,3260
8080,4095
8081,4095
8082,4095
8083,4064
8084,3389
8085,2678
8086,2144
8087,1819
8088,1717
8089,1726
8090,1793
8091,1815
8092,1863
8093,1859
8094,1860
8095,1857
8096,1840
8097,1812
8098,1809
8099,1822
8100,1825
8101,1823
8102,1814
8103,1835
8104,1849
8105,1840
8106,1833
8107,1854
8108,1870
8109,1877
8110,1858
8111,1872
8112,1878
8113,1891
8114,1872
8115,1889
8116,1910
8117,1926
8118,1919
8119,1926
8120,1948
8121,1969
8122,1968
8123,1938
8124,1952
8125,1991
8126,2002
8127,1986
8128,2019
8129,2062
8130,2065
8131,2064
8132,2095
8133,2128
8134,2146
8135,2131
8136,2162
8137,2225
8138,2278
8139,2282
8140,2315
8141,2352
8142,2381
8143,2384
8144,2461
8145,2559
8146,2559
8147,2519
8148,2509
8149,2539
8150,2559
8151,2529
8152,2490
8153,2477
8154,2436
8155,2320
8156,2177
8157,2122
8158,2043
8159,1983
8160,1913
8161,1822
8162,1730
8163,1661
8164,1625
8165,1619
8166,1602
8167,1577
8168,1535
8169,1520
8170,1523
8171,1517
8172,1456
8173,1461
8174,1570
8175,1601
8176,1519
8177,1445
8178,1437
8179,1479
8180,1493
8181,1522
8182,1562
8183,1535
8184,1531
8185,1520
8186,1555
8187,1535
8188,1533
8189,1520
8190,1605
8191,1649
8192,1615
8193,1584
8194,1632
8195,1599
8196,1523
8197,1477
8198,1527
8199,1584
8200,1597
8201,1585
8202,1611
8203,1654
8204,1648
8205,1611
8206,1630
8207,1701
8208,1691
8209,1634
8210,1658
8211,1763
8212,1745
8213,1659
8214,1622
8215,1681
8216,1686
8217,1625
8218,1619
8219,1677
8220,1674
8221,1633
8222,1609
8223,1665
8224,1670
8225,1626
8226,1616
8227,1697
8228,1737
8229,1671
8230,1622
8231,1703
8232,1767
8233,1728
8234,1649
8235,1663
8236,1747
8237,1736
8238,1695
8239,1690
8240,1747
8241,1715
8242,1655
8243,1643
8244,1746
8245,1769
8246,1728
8247,1643
8248,1703
8249,1759
8250,1739
8251,1729
8252,1779
8253,1826
8254,1767
8255,1711
8256,1741
8257,1793
8258,1763
8259,1712
8260,1744
8261,1817
8262,1795
8263,1763
8264,1749
8265,1823
8266,1835
8267,1787
8268,1707
8269,1767
8270,1795
8271,1779
8272,1771
8273,1799
8274,1779
8275,1761
8276,1770
8277,1813
8278,1839
8279,1803
8280,1726
8281,1759
8282,1840
8283,1821
8284,1745
8285,1789
8286,1901
8287,1873
8288,1777
8289,1778
8290,1863
8291,1853
8292,1806
8293,1791
8294,1805
8295,1793
8296,1778
8297,1699
8298,1767
8299,1846
8300,1843
8301,1808
8302,1840
8303,1851
8304,1809
8305,1843
8306,1898
8307,1904
8308,1859
8309,1855
8310,1930
8311,2004
8312,1968
8313,1857
8314,1827
8315,1926
8316,1955
8317,1920
8318,1907
8319,1982
8320,2013
8321,1919
8322,1819
8323,1823
8324,1840
8325,1841
8326,1836
8327,1887
8328,1905
8329,1813
8330,1680
8331,1710
8332,1822
8333,1819
8334,1805
8335,1811
8336,1819
8337,1790
8338,1751
8339,1772
8340,1822
8341,1810
8342,1761
8343,1714
8344,1734
8345,1744
8346,1728
8347,1819
8348,2159
8349,2653
8350,3331
8351,4095
8352,4095
8353,4095
8354,4095
8355,3521
8356,2782
8357,2206
8358,1835
8359,1711
8360,1733
8361,1783
8362,1776
8363,1766
8364,1809
8365,1867
8366,1862
8367,1855
8368,1828
8369,1822
8370,1780
8371,1762
8372,1729
8373,1794
8374,1819
8375,1791
8376,1787
8377,1840
8378,1887
8379,1873
8380,1871
8381,1887
8382,1907
8383,1882
8384,1826
8385,1853
8386,1920
8387,1919
8388,1886
8389,1871
8390,1917
8391,1922
8392,1898
8393,1894
8394,1971
8395,1995
8396,2003
8397,1986
8398,2029
8399,2032
8400,2017
8401,2039
8402,2117
8403,2197
8404,2176
8405,2121
8406,2147
8407,2229
8408,2265
8409,2258
8410,2274
8411,2307
8412,2283
8413,2289
8414,2352
8415,2463
8416,2509
8417,2502
8418,2498
8419,2557
8420,2551
8421,2512
8422,2477
8423,2541
8424,2514
8425,2386
8426,2219
8427,2176
8428,2133
8429,2023
8430,1905
8431,1851
8432,1821
8433,1808
8434,1753
8435,1671
8436,1558
8437,1457
8438,1439
8439,1475
8440,1503
8441,1467
8442,1429
8443,1437
8444,1479
8445,1488
8446,1483
8447,1425
8448,1456
8449,1493
8450,1472
8451,1456
8452,1535
8453,1578
8454,1498
8455,1463
8456,1503
8457,1521
8458,1488
8459,1450
8460,1473
8461,1557
8462,1554
8463,1495
8464,1502
8465,1562
8466,1553
8467,1535
8468,1584
8469,1648
8470,1674
8471,1606
8472,1535
8473,1606
8474,1650
8475,1638
8476,1569
8477,1584
8478,1616
8479,1602
8480,1584
8481,1627
8482,1675
8483,1663
8484,1623
8485,1651
8486,1670
8487,1643
8488,1582
8489,1569
8490,1640
8491,1660
8492,1653
8493,1670
8494,1741
8495,1726
8496,1649
8497,1611
8498,1654
8499,1681
8500,1665
8501,1626
8502,1681
8503,1720
8504,1695
8505,1650
8506,1691
8507,1749
8508,1738
8509,1727
8510,1731
8511,1715
8512,1667
8513,1630
8514,1616
8515,1680
8516,1717
8517,1719
8518,1755
8519,1763
8520,1695
8521,1605
8522,1584
8523,1657
8524,1709
8525,1685
8526,1648
8527,1712
8528,1764
8529,1718
8530,1674
8531,1707
8532,1741
8533,1715
8534,1662
8535,1719
8536,1795
8537,1767
8538,1704
8539,1713
8540,1804
8541,1819
8542,1759
8543,1694
8544,1759
8545,1790
8546,1749
8547,1674
8548,1658
8549,1648
8550,1690
8551,1761
8552,1818
8553,1799
8554,1731
8555,1659
8556,1697
8557,1757
8558,1754
8559,1775
8560,1827
8561,1840
8562,1771
8563,1697
8564,1712
8565,1821
8566,1861
8567,1807
8568,1767
8569,1809
8570,1841
8571,1830
8572,1746
8573,1744
8574,1755
8575,1786
8576,1830
8577,1907
8578,1949
8579,1934
8580,1902
8581,1927
8582,1963
8583,1951
8584,1891
8585,1910
8586,1946
8587,1925
8588,1826
8589,1822
8590,1897
8591,1824
8592,1785
8593,1777
8594,1867
8595,1849
8596,1773
8597,1713
8598,1786
8599,1825
8600,1786
8601,1747
8602,1808
8603,1840
8604,1826
8605,1744
8606,1758
8607,1766
8608,1751
8609,1741
8610,1763
8611,1780
8612,1757
8613,1742
8614,1885
8615,2231
8616,2695
8617,3363
8618,4095
8619,4095
8620,4095
8621,4095
8622,3520
8623,2735
8624,2112
8625,1771
8626,1692
8627,1739
8628,1773
8629,1766
8630,1737
8631,1798
8632,1846
8633,1817
8634,1781
8635,1792
8636,1838
8637,1849
8638,1792
8639,1798
8640,1860
8641,1910
8642,1926
8643,1879
8644,1847
8645,1775
8646,1775
8647,1812
8648,1879
8649,1875
8650,1842
8651,1808
8652,1844
8653,1863
8654,1872
8655,1876
8656,1936
8657,1984
8658,1971
8659,1909
8660,1941
8661,2001
8662,2016
8663,1982
8664,1959
8665,2007
8666,2007
8667,2011
8668,2087
8669,2158
8670,2137
8671,2064
8672,2045
8673,2135
8674,2187
8675,2227
8676,2352
8677,2445
8678,2369
8679,2269
8680,2303
8681,2435
8682,2519
8683,2489
8684,2419
8685,2397
8686,2445
8687,2501
8688,2463
8689,2435
8690,2452
8691,2403
8692,2320
8693,2269
8694,2241
8695,2149
8696,2006
8697,1891
8698,1883
8699,1873
8700,1879
8701,1793
8702,1671
8703,1563
8704,1523
8705,1558
8706,1584
8707,1571
8708,1535
8709,1578
8710,1647
8711,1595
8712,1413
8713,1311
8714,1357
8715,1458
8716,1491
8717,1518
8718,1520
8719,1535
8720,1565
8721,1523
8722,1457
8723,1506
8724,1525
8725,1535
8726,1567
8727,1609
8728,1632
8729,1653
8730,1578
8731,1535
8732,1531
8733,1535
8734,1574
8735,1630
8736,1648
8737,1601
8738,1570
8739,1599
8740,1648
8741,1647
8742,1634
8743,1638
8744,1662
8745,1664
8746,1641
8747,1622
8748,1680
8749,1744
8750,1723
8751,1619
8752,1645
8753,1660
8754,1638
8755,1605
8756,1661
8757,1701
8758,1696
8759,1662
8760,1680
8761,1712
8762,1703
8763,1682
8764,1679
8765,1699
8766,1708
8767,1678
8768,1658
8769,1711
8770,1766
8771,1744
8772,1667
8773,1680
8774,1652
8775,1629
8776,1606
8777,1697
8778,1727
8779,1722
8780,1666
8781,1693
8782,1699
8783,1681
8784,1693
8785,1712
8786,1742
8787,1729
8788,1722
8789,1735
8790,1759
8791,1744
8792,1724
8793,1742
8794,1754
8795,1718
8796,1682
8797,1689
8798,1655
8799,1741
8800,1718
8801,1711
8802,1776
8803,1779
8804,1769
8805,1753
8806,1771
8807,1790
8808,1813
8809,1801
8810,1807
8811,1794
8812,1785
8813,1833
8814,1837
8815,1751
8816,1696
8817,1682
8818,1717
8819,1751
8820,1740
8821,1715
8822,1714
8823,1773
8824,1833
8825,1843
8826,1761
8827,1764
8828,1785
8829,1790
8830,1814
8831,1865
8832,1840
8833,1776
8834,1701
8835,1751
8836,1818
8837,1822
8838,1807
8839,1839
8840,1905
8841,1926
8842,1903
8843,1923
8844,1968
8845,1929
8846,1888
8847,1897
8848,1970
8849,2007
8850,2014
8851,1975
8852,1981
8853,1945
8854,1885
8855,1835
8856,1868
8857,1891
8858,1866
8859,1837
8860,1826
8861,1839
8862,1809
8863,1799
8864,1813
8865,1813
8866,1787
8867,1763
8868,1785
8869,1826
8870,1822
8871,1799
8872,1795
8873,1826
8874,1808
8875,1771
8876,1742
8877,1783
8878,1772
8879,1765
8880,1844
8881,2156
8882,2663
8883,3325
8884,4031
8885,4095
8886,4095
8887,4095
8888,3472
8889,2837
8890,2320
8891,1895
8892,1721
8893,1741
8894,1843
8895,1853
8896,1819
8897,1803
8898,1878
8899,1903
8900,1839
8901,1789
8902,1804
8903,1792
8904,1787
8905,1791
8906,1841
8907,1822
8908,1790
8909,1759
8910,1796
8911,1843
8912,1851
8913,1808
8914,1818
8915,1875
8916,1879
8917,1858
8918,1915
8919,1961
8920,1932
8921,1879
8922,1855
8923,1879
8924,1904
8925,1941
8926,1959
8927,2005
8928,1990
8929,1966
8930,1936
8931,1957
8932,1942
8933,2014
8934,2025
8935,2066
8936,2099
8937,2133
8938,2135
8939,2151
8940,2161
8941,2192
8942,2262
8943,2351
8944,2384
8945,2323
8946,2262
8947,2270
8948,2387
8949,2463
8950,2463
8951,2480
8952,2559
8953,2585
8954,2541
8955,2474
8956,2458
8957,2419
8958,2346
8959,2253
8960,2223
8961,2137
8962,2015
8963,1953
8964,1919
8965,1858
8966,1749
8967,1625
8968,1567
8969,1580
8970,1555
8971,1503
8972,1481
8973,1514
8974,1494
8975,1477
8976,1494
8977,1529
8978,1503
8979,1473
8980,1463
8981,1508
8982,1519
8983,1517
8984,1506
8985,1530
8986,1501
8987,1456
8988,1510
8989,1554
8990,1562
8991,1526
8992,1488
8993,1479
8994,1527
8995,1555
8996,1535
8997,1535
8998,1591
8999,1587
9000,1556
9001,1555
9002,1615
9003,1617
9004,1586
9005,1566
9006,1616
9007,1625
9008,1613
9009,1627
9010,1664
9011,1697
9012,1654
9013,1600
9014,1616
9015,1660
9016,1636
9017,1602
9018,1619
9019,1678
9020,1671
9021,1642
9022,1634
9023,1664
9024,1669
9025,1655
9026,1643
9027,1683
9028,1677
9029,1648
9030,1655
9031,1711
9032,1681
9033,1629
9034,1626
9035,1690
9036,1719
9037,1696
9038,1619
9039,1625
9040,1660
9041,1671
9042,1711
9043,1723
9044,1749
9045,1725
9046,1655
9047,1648
9048,1702
9049,1694
9050,1677
9051,1677
9052,1714
9053,1722
9054,1722
9055,1692
9056,1715
9057,1696
9058,1685
9059,1693
9060,1744
9061,1763
9062,1745
9063,1725
9064,1741
9065,1722
9066,1689
9067,1653
9068,1715
9069,1767
9070,1760
9071,1744
9072,1747
9073,1799
9074,1851
9075,1847
9076,1758
9077,1712
9078,1687
9079,1697
9080,1722
9081,1779
9082,1819
9083,1803
9084,1712
9085,1716
9086,1787
9087,1807
9088,1784
9089,1808
9090,1843
9091,1828
9092,1790
9093,1805
9094,1850
9095,1822
9096,1750
9097,1765
9098,1837
9099,1813
9100,1765
9101,1652
9102,1776
9103,1819
9104,1886
9105,1862
9106,1812
9107,1777
9108,1755
9109,1747
9110,1814
9111,1840
9112,1827
9113,1825
9114,1862
9115,1872
9116,1838
9117,1826
9118,1858
9119,1879
9120,1888
9121,1885
9122,1926
9123,2028
9124,2032
9125,1939
9126,1919
9127,1953
9128,1947
9129,1953
9130,2027
9131,2071
9132,2006
9133,1899
9134,1802
9135,1818
9136,1840
9137,1821
9138,1821
9139,1859
9140,1872
9141,1846
9142,1784
9143,1757
9144,1795
9145,1805
9146,1787
9147,1815
9148,1903
9149,1887
9150,1814
9151,1790
9152,1834
9153,1823
9154,1773
9155,1741
9156,1786
9157,1776
9158,1776
9159,1866
9160,1998
9161,2202
9162,2624
9163,3229
9164,4095
9165,4095
9166,4095
9167,4058
9168,3443
9169,2768
9170,2203
9171,1861
9172,1773
9173,1806
9174,1823
9175,1808
9176,1809
9177,1854
9178,1837
9179,1791
9180,1780
9181,1849
9182,1840
9183,1840
9184,1839
9185,1841
9186,1839
9187,1811
9188,1823
9189,1847
9190,1850
9191,1835
9192,1843
9193,1902
9194,1899
9195,1859
9196,1855
9197,1902
9198,1923
9199,1863
9200,1842
9201,1887
9202,1950
9203,1937
9204,1856
9205,1836
9206,1927
9207,1982
9208,1963
9209,1959
9210,2007
9211,2037
9212,2029
9213,2036
9214,2092
9215,2128
9216,2154
9217,2194
9218,2226
9219,2167
9220,2091
9221,2126
9222,2225
9223,2317
9224,2320
9225,2305
9226,2320
9227,2402
9228,2437
9229,2437
9230,2478
9231,2595
9232,2601
9233,2547
9234,2480
9235,2527
9236,2514
9237,2442
9238,2369
9239,2320
9240,2243
9241,2128
9242,2023
9243,1969
9244,1923
9245,1839
9246,1765
9247,1719
9248,1692
9249,1620
9250,1566
9251,1530
9252,1557
9253,1535
9254,1488
9255,1453
9256,1510
9257,1520
9258,1499
9259,1482
9260,1505
9261,1513
9262,1470
9263,1453
9264,1493
9265,1514
9266,1509
9267,1524
9268,1571
9269,1600
9270,1535
9271,1523
9272,1535
9273,1535
9274,1535
9275,1533
9276,1509
9277,1523
9278,1530
9279,1530
9280,1535
9281,1577
9282,1611
9283,1616
9284,1584
9285,1601
9286,1615
9287,1591
9288,1581
9289,1641
9290,1651
9291,1616
9292,1616
9293,1663
9294,1711
9295,1669
9296,1596
9297,1597
9298,1634
9299,1616
9300,1596
9301,1602
9302,1635
9303,1639
9304,1648
9305,1631
9306,1663
9307,1664
9308,1623
9309,1593
9310,1663
9311,1683
9312,1670
9313,1653
9314,1680
9315,1712
9316,1712
9317,1701
9318,1743
9319,1728
9320,1680
9321,1648
9322,1664
9323,1700
9324,1697
9325,1667
9326,1658
9327,1701
9328,1700
9329,1678
9330,1667
9331,1723
9332,1775
9333,1775
9334,1718
9335,1725
9336,1712
9337,1680
9338,1680
9339,1728
9340,1743
9341,1719
9342,1683
9343,1718
9344,1753
9345,1747
9346,1746
9347,1760
9348,1779
9349,1758
9350,1744
9351,1761
9352,1808
9353,1819
9354,1789
9355,1743
9356,1780
9357,1779
9358,1783
9359,1785
9360,1794
9361,1750
9362,1709
9363,1690
9364,1755
9365,1802
9366,1798
9367,1789
9368,1835
9369,1845
9370,1819
9371,1782
9372,1773
9373,1783
9374,1799
9375,1809
9376,1833
9377,1878
9378,1873
9379,1835
9380,1793
9381,1778
9382,1719
9383,1744
9384,1745
9385,1773
9386,1777
9387,1775
9388,1792
9389,1887
9390,1908
9391,1870
9392,1840
9393,1841
9394,1828
9395,1776
9396,1763
9397,1840
9398,1904
9399,1874
9400,1840
9401,1851
9402,1855
9403,1809
9404,1799
9405,1842
9406,1952
9407,1971
9408,1906
9409,1889
9410,1936
9411,1936
9412,1945
9413,1993
9414,2070
9415,2123
9416,2099
9417,1952
9418,1827
9419,1767
9420,1765
9421,1817
9422,1882
9423,1905
9424,1883
9425,1847
9426,1809
9427,1821
9428,1813
9429,1799
9430,1782
9431,1834
9432,1862
9433,1819
9434,1747
9435,1756
9436,1758
9437,1746
9438,1751
9439,1789
9440,1840
9441,1886
9442,1827
9443,1764
9444,1812
9445,2030
9446,2514
9447,3157
9448,3954
9449,4095
9450,4095
9451,4095
9452,3827
9453,2942
9454,2279
9455,1860
9456,1719
9457,1807
9458,1776
9459,1808
9460,1935
9461,2003
9462,1936
9463,1808
9464,1787
9465,1859
9466,1913
9467,1840
9468,1815
9469,1917
9470,1901
9471,1794
9472,1754
9473,1769
9474,1746
9475,1753
9476,1809
9477,1877
9478,1883
9479,1842
9480,1822
9481,1877
9482,1893
9483,1907
9484,1914
9485,1968
9486,1981
9487,1883
9488,1830
9489,1883
9490,1931
9491,1965
9492,1988
9493,2002
9494,1987
9495,2000
9496,1986
9497,2038
9498,2073
9499,2058
9500,2029
9501,2085
9502,2178
9503,2203
9504,2201
9505,2204
9506,2254
9507,2263
9508,2286
9509,2329
9510,2409
9511,2448
9512,2459
9513,2445
9514,2491
9515,2522
9516,2512
9517,2514
9518,2559
9519,2558
9520,2489
9521,2426
9522,2387
9523,2355
9524,2256
9525,2151
9526,2057
9527,2000
9528,1926
9529,1827
9530,1726
9531,1704
9532,1665
9533,1619
9534,1614
9535,1634
9536,1586
9537,1493
9538,1447
9539,1477
9540,1488
9541,1462
9542,1447
9543,1483
9544,1510
9545,1471
9546,1435
9547,1476
9548,1535
9549,1554
9550,1485
9551,1447
9552,1487
9553,1511
9554,1488
9555,1484
9556,1520
9557,1530
9558,1523
9559,1511
9560,1535
9561,1535
9562,1555
9563,1533
9564,1567
9565,1584
9566,1569
9567,1562
9568,1589
9569,1606
9570,1601
9571,1557
9572,1562
9573,1616
9574,1626
9575,1591
9576,1616
9577,1667
9578,1651
9579,1621
9580,1630
9581,1649
9582,1630
9583,1631
9584,1616
9585,1642
9586,1634
9587,1631
9588,1637
9589,1665
9590,1663
9591,1649
9592,1622
9593,1655
9594,1680
9595,1681
9596,1658
9597,1665
9598,1664
9599,1631
9600,1655
9601,1712
9602,1722
9603,1651
9604,1581
9605,1568
9606,1646
9607,1689
9608,1678
9609,1674
9610,1703
9611,1685
9612,1673
9613,1685
9614,1759
9615,1791
9616,1743
9617,1593
9618,1654
9619,1682
9620,1691
9621,1674
9622,1699
9623,1728
9624,1717
9625,1706
9626,1729
9627,1751
9628,1741
9629,1711
9630,1713
9631,1747
9632,1761
9633,1745
9634,1741
9635,1787
9636,1802
9637,1779
9638,1738
9639,1776
9640,1787
9641,1773
9642,1723
9643,1755
9644,1801
9645,1778
9646,1712
9647,1713
9648,1748
9649,1755
9650,1775
9651,1821
9652,1845
9653,1780
9654,1680
9655,1687
9656,1761
9657,1776
9658,1817
9659,1843
9660,1894
9661,1865
9662,1787
9663,1705
9664,1749
9665,1774
9666,1794
9667,1793
9668,1873
9669,1935
9670,1835
9671,1709
9672,1729
9673,1817
9674,1862
9675,1855
9676,1794
9677,1785
9678,1789
9679,1805
9680,1877
9681,1954
9682,1957
9683,1931
9684,1933
9685,1990
9686,2021
9687,1987
9688,1962
9689,1990
9690,1985
9691,1872
9692,1743
9693,1763
9694,1808
9695,1831
9696,1826
9697,1840
9698,1838
9699,1802
9700,1775
9701,1804
9702,1835
9703,1822
9704,1805
9705,1810
9706,1850
9707,1837
9708,1792
9709,1795
9710,1841
9711,1830
9712,1808
9713,1787
9714,1807
9715,1777
9716,1744
9717,1775
9718,2027
9719,2395
9720,2877
9721,3622
9722,4095
9723,4095
9724,4095
9725,3906
9726,3141
9727,2492
9728,2012
9729,1749
9730,1705
9731,1787
9732,1819
9733,1840
9734,1843
9735,1894
9736,1881
9737,1840
9738,1868
9739,1875
9740,1809
9741,1794
9742,1768
9743,1819
9744,1852
9745,1853
9746,1833
9747,1835
9748,1839
9749,1826
9750,1809
9751,1856
9752,1903
9753,1884
9754,1815
9755,1808
9756,1867
9757,1875
9758,1862
9759,1875
9760,1932
9761,1922
9762,1917
9763,1947
9764,1979
9765,1961
9766,1973
9767,1922
9768,1941
9769,1968
9770,1969
9771,1982
9772,2046
9773,2094
9774,2091
9775,2081
9776,2111
9777,2160
9778,2173
9779,2138
9780,2156
9781,2246
9782,2304
9783,2342
9784,2368
9785,2410
9786,2406
9787,2407
9788,2425
9789,2481
9790,2495
9791,2511
9792,2448
9793,2419
9794,2384
9795,2329
9796,2285
9797,2241
9798,2160
9799,2042
9800,1952
9801,1872
9802,1798
9803,1739
9804,1642
9805,1606
9806,1607
9807,1572
9808,1495
9809,1465
9810,1498
9811,1392
9812,1454
9813,1424
9814,1446
9815,1479
9816,1475
9817,1441
9818,1458
9819,1454
9820,1426
9821,1409
9822,1438
9823,1466
9824,1457
9825,1454
9826,1488
9827,1510
9828,1501
9829,1472
9830,1471
9831,1520
9832,1520
9833,1488
9834,1461
9835,1506
9836,1519
9837,1555
9838,1597
9839,1595
9840,1535
9841,1510
9842,1527
9843,1597
9844,1598
9845,1563
9846,1535
9847,1591
9848,1644
9849,1653
9850,1591
9851,1613
9852,1631
9853,1616
9854,1600
9855,1611
9856,1658
9857,1678
9858,1707
9859,1679
9860,1644
9861,1621
9862,1600
9863,1565
9864,1619
9865,1663
9866,1682
9867,1655
9868,1662
9869,1652
9870,1633
9871,1611
9872,1659
9873,1691
9874,1683
9875,1666
9876,1718
9877,1738
9878,1691
9879,1631
9880,1641
9881,1693
9882,1695
9883,1663
9884,1687
9885,1763
9886,1774
9887,1762
9888,1756
9889,1739
9890,1694
9891,1671
9892,1691
9893,1759
9894,1765
9895,1757
9896,1744
9897,1759
9898,1767
9899,1755
9900,1782
9901,1836
9902,1819
9903,1742
9904,1703
9905,1728
9906,1766
9907,1786
9908,1769
9909,1656
9910,1775
9911,1779
9912,1771
9913,1761
9914,1790
9915,1797
9916,1802
9917,1822
9918,1835
9919,1792
9920,1808
9921,1824
9922,1856
9923,1834
9924,1810
9925,1795
9926,1863
9927,1899
9928,1841
9929,1791
9930,1789
9931,1821
9932,1808
9933,1854
9934,1893
9935,1869
9936,1862
9937,1872
9938,1839
9939,1838
9940,1837
9941,1862
9942,1874
9943,1883
9944,1854
9945,1859
9946,1860
9947,1881
9948,1889
9949,1890
9950,1921
9951,1957
9952,1971
9953,1970
9954,1969
9955,1995
9956,2034
9957,2031
9958,2013
9959,2012
9960,2036
9961,2040
9962,1990
9963,1968
9964,1964
9965,1918
9966,1951
9967,1947
9968,1936
9969,1885
9970,1886
9971,1927
9972,1953
9973,1907
9974,1850
9975,1851
9976,1858
9977,1856
9978,1852
9979,1870
9980,1904
9981,1909
9982,1890
9983,1903
9984,1907
9985,1898
9986,1899
9987,1895
9988,1872
9989,1886
9990,2000
9991,2256
9992,2657
9993,3299
9994,4095
9995,4095
9996,4095
9997,4095
9998,3999
9999,3140
10000,2426
10001,1971
10002,1838
10003,1857
10004,1917
10005,1979
10006,2031
10007,2018
10008,1983
10009,1943
10010,1935
10011,1931
10012,1993
10013,1971
10014,1929
10015,1904
10016,1929
10017,1941
10018,1948
10019,1919
10020,1937
10021,1959
10022,1968
10023,1950
10024,1985
10025,2003
10026,1973
10027,1933
10028,1965
10029,2032
10030,2044
10031,1996
10032,1979
10033,1986
10034,2000
10035,2030
10036,2034
10037,2065
10038,2071
10039,2101
10040,2102
10041,2117
10042,2128
10043,2129
10044,2146
10045,2194
10046,2205
10047,2191
10048,2225
10049,2275
10050,2315
10051,2349
10052,2345
10053,2357
10054,2385
10055,2439
10056,2475
10057,2527
10058,2546
10059,2549
10060,2589
10061,2631
10062,2671
10063,2693
10064,2703
10065,2640
10066,2591
10067,2559
10068,2535
10069,2434
10070,2339
10071,2256
10072,2203
10073,2099
10074,1994
10075,1897
10076,1855
10077,1821
10078,1776
10079,1677
10080,1631
10081,1619
10082,1600
10083,1626
10084,1650
10085,1639
10086,1603
10087,1597
10088,1590
10089,1589
10090,1584
10091,1599
10092,1648
10093,1606
10094,1529
10095,1535
10096,1535
10097,1535
10098,1535
10099,1571
10100,1602
10101,1632
10102,1631
10103,1622
10104,1621
10105,1610
10106,1600
10107,1660
10108,1630
10109,1677
10110,1711
10111,1700
10112,1663
10113,1631
10114,1500
10115,1655
10116,1670
10117,1662
10118,1686
10119,1697
10120,1721
10121,1705
10122,1690
10123,1680
10124,1699
10125,1712
10126,1719
10127,1727
10128,1747
10129,1782
10130,1751
10131,1736
10132,1742
10133,1744
10134,1722
10135,1729
10136,1728
10137,1742
10138,1731
10139,1723
10140,1722
10141,1751
10142,1745
10143,1729
10144,1705
10145,1742
10146,1787
10147,1777
10148,1747
10149,1754
10150,1762
10151,1749
10152,1713
10153,1722
10154,1744
10155,1766
10156,1762
10157,1759
10158,1776
10159,1770
10160,1747
10161,1777
10162,1828
10163,1793
10164,1759
10165,1719
10166,1703
10167,1698
10168,1771
10169,1804
10170,1813
10171,1799
10172,1783
10173,1749
10174,1757
10175,1789
10176,1798
10177,1792
10178,1808
10179,1833
10180,1806
10181,1772
10182,1792
10183,1802
10184,1809
10185,1796
10186,1763
10187,1761
10188,1793
10189,1819
10190,1822
10191,1823
10192,1806
10193,1779
10194,1789
10195,1851
10196,1850
10197,1808
10198,1766
10199,1773
10200,1808
10201,1840
10202,1819
10203,1802
10204,1795
10205,1807
10206,1803
10207,1805
10208,1829
10209,1810
10210,1821
10211,1828
10212,1834
10213,1825
10214,1808
10215,1789
10216,1824
10217,1838
10218,1833
10219,1823
10220,1853
10221,1841
10222,1845
10223,1857
10224,1871
10225,1873
10226,1872
10227,1837
10228,1808
10229,1841
10230,1861
10231,1840
10232,1840
10233,1878
10234,1897
10235,1870
10236,1849
10237,1879
10238,1889
10239,1882
10240,1906
10241,1998
10242,1995
10243,1939
10244,1898
10245,1904
10246,1916
10247,1933
10248,1943
10249,1999
10250,1969
10251,1936
10252,1936
10253,1959
10254,1887
10255,1819
10256,1791
10257,1855
10258,1899
10259,1906
10260,1847
10261,1734
10262,1681
10263,1690
10264,1726
10265,1771
10266,1794
10267,1774
10268,1787
10269,1787
10270,1814
10271,1804
10272,1786
10273,1765
10274,1779
10275,1729
10276,1697
10277,1675
10278,1783
10279,2059
10280,2439
10281,2957
10282,3723
10283,4095
10284,4095
10285,4095
10286,3623
10287,2906
10288,2288
10289,1841
10290,1656
10291,1694
10292,1717
10293,1791
10294,1818
10295,1842
10296,1813
10297,1786
10298,1759
10299,1780
10300,1778
10301,1763
10302,1744
10303,1747
10304,1748
10305,1801
10306,1783
10307,1769
10308,1762
10309,1757
10310,1723
10311,1738
10312,1794
10313,1856
10314,1852
10315,1808
10316,1808
10317,1805
10318,1808
10319,1790
10320,1854
10321,1872
10322,1834
10323,1775
10324,1796
10325,1837
10326,1871
10327,1866
10328,1885
10329,1908
10330,1941
10331,1951
10332,1967
10333,2001
10334,2006
10335,1987
10336,2056
10337,2179
10338,2177
10339,2077
10340,2043
10341,2131
10342,2202
10343,2256
10344,2266
10345,2305
10346,2351
10347,2382
10348,2367
10349,2387
10350,2417
10351,2455
10352,2419
10353,2432
10354,2405
10355,2320
10356,2256
10357,2224
10358,2193
10359,2080
10360,1937
10361,1838
10362,1781
10363,1723
10364,1701
10365,1675
10366,1614
10367,1493
10368,1404
10369,1408
10370,1489
10371,1462
10372,1367
10373,1327
10374,1371
10375,1367
10376,1350
10377,1328
10378,1322
10379,1351
10380,1424
10381,1493
10382,1455
10383,1361
10384,1313
10385,1325
10386,1334
10387,1362
10388,1359
10389,1345
10390,1350
10391,1396
10392,1419
10393,1413
10394,1414
10395,1456
10396,1456
10397,1447
10398,1451
10399,1495
10400,1483
10401,1456
10402,1510
10403,1535
10404,1517
10405,1453
10406,1424
10407,1435
10408,1465
10409,1390
10410,1477
10411,1495
10412,1519
10413,1505
10414,1495
10415,1508
10416,1555
10417,1579
10418,1535
10419,1511
10420,1521
10421,1530
10422,1535
10423,1506
10424,1597
10425,1665
10426,1616
10427,1506
10428,1507
10429,1523
10430,1535
10431,1534
10432,1567
10433,1571
10434,1558
10435,1535
10436,1567
10437,1607
10438,1591
10439,1534
10440,1535
10441,1635
10442,1619
10443,1584
10444,1601
10445,1641
10446,1600
10447,1535
10448,1569
10449,1657
10450,1639
10451,1589
10452,1581
10453,1606
10454,1619
10455,1617
10456,1618
10457,1664
10458,1691
10459,1651
10460,1616
10461,1617
10462,1632
10463,1663
10464,1640
10465,1659
10466,1703
10467,1691
10468,1646
10469,1641
10470,1712
10471,1732
10472,1703
10473,1675
10474,1675
10475,1680
10476,1694
10477,1694
10478,1724
10479,1719
10480,1679
10481,1630
10482,1638
10483,1712
10484,1771
10485,1777
10486,1736
10487,1682
10488,1603
10489,1633
10490,1675
10491,1730
10492,1745
10493,1740
10494,1727
10495,1758
10496,1733
10497,1709
10498,1712
10499,1745
10500,1753
10501,1759
10502,1758
10503,1774
10504,1798
10505,1802
10506,1754
10507,1753
10508,1767
10509,1763
10510,1751
10511,1778
10512,1792
10513,1757
10514,1737
10515,1739
10516,1783
10517,1783
10518,1744
10519,1770
10520,1830
10521,1817
10522,1776
10523,1789
10524,1863
10525,1863
10526,1846
10527,1861
10528,1937
10529,1950
10530,1917
10531,1859
10532,1869
10533,1903
10534,1933
10535,1936
10536,1957
10537,1965
10538,1958
10539,1909
10540,1852
10541,1870
10542,1890
10543,1872
10544,1855
10545,1843
10546,1803
10547,1787
10548,1799
10549,1846
10550,1815
10551,1767
10552,1744
10553,1795
10554,1835
10555,1808
10556,1776
10557,1836
10558,1863
10559,1792
10560,1741
10561,1769
10562,1819
10563,1795
10564,1743
10565,1791
10566,2047
10567,2453
10568,2996
10569,3808
10570,4095
10571,4095
10572,4095
10573,3673
10574,3019
10575,2431
10576,1936
10577,1711
10578,1744
10579,1819
10580,1843
10581,1825
10582,1844
10583,1909
10584,1890
10585,1817
10586,1777
10587,1791
10588,1786
10589,1769
10590,1819
10591,1898
10592,1859
10593,1797
10594,1793
10595,1852
10596,1872
10597,1897
10598,1872
10599,1897
10600,1892
10601,1861
10602,1839
10603,1886
10604,1935
10605,1914
10606,1889
10607,1900
10608,1903
10609,1931
10610,1985
10611,1983
10612,1974
10613,1950
10614,1960
10615,2000
10616,2030
10617,2003
10618,1982
10619,2013
10620,2096
10621,2123
10622,2128
10623,2151
10624,2207
10625,2193
10626,2190
10627,2206
10628,2273
10629,2365
10630,2407
10631,2384
10632,2384
10633,2478
10634,2595
10635,2559
10636,2482
10637,2447
10638,2506
10639,2523
10640,2505
10641,2477
10642,2415
10643,2341
10644,2291
10645,2240
10646,2183
10647,2123
10648,2058
10649,2005
10650,1921
10651,1831
10652,1762
10653,1775
10654,1743
10655,1635
10656,1520
10657,1506
10658,1493
10659,1457
10660,1471
10661,1534
10662,1554
10663,1488
10664,1442
10665,1436
10666,1454
10667,1475
10668,1473
10669,1483
10670,1505
10671,1520
10672,1535
10673,1535
10674,1523
10675,1461
10676,1445
10677,1469
10678,1525
10679,1600
10680,1606
10681,1535
10682,1584
10683,1636
10684,1616
10685,1587
10686,1579
10687,1582
10688,1597
10689,1588
10690,1616
10691,1598
10692,1589
10693,1575
10694,1590
10695,1647
10696,1648
10697,1671
10698,1710
10699,1706
10700,1717
10701,1712
10702,1666
10703,1632
10704,1615
10705,1605
10706,1584
10707,1616
10708,1676
10709,1681
10710,1669
10711,1667
10712,1690
10713,1719
10714,1701
10715,1682
10716,1723
10717,1744
10718,1723
10719,1679
10720,1661
10721,1651
10722,1664
10723,1685
10724,1793
10725,1884
10726,1836
10727,1635
10728,1535
10729,1575
10730,1706
10731,1808
10732,1819
10733,1745
10734,1679
10735,1611
10736,1637
10737,1697
10738,1693
10739,1695
10740,1728
10741,1712
10742,1686
10743,1664
10744,1655
10745,1700
10746,1750
10747,1735
10748,1729
10749,1777
10750,1787
10751,1777
10752,1804
10753,1955
10754,1980
10755,1762
10756,1569
10757,1615
10758,1691
10759,1760
10760,1766
10761,1781
10762,1789
10763,1773
10764,1712
10765,1732
10766,1803
10767,1817
10768,1810
10769,1798
10770,1809
10771,1811
10772,1775
10773,1761
10774,1797
10775,1814
10776,1806
10777,1798
10778,1833
10779,1833
10780,1808
10781,1776
10782,1811
10783,1844
10784,1825
10785,1813
10786,1831
10787,1855
10788,1851
10789,1818
10790,1824
10791,1854
10792,1850
10793,1837
10794,1842
10795,1855
10796,1841
10797,1838
10798,1886
10799,1933
10800,1938
10801,1918
10802,1899
10803,1933
10804,1975
10805,2003
10806,2011
10807,2061
10808,2064
10809,1982
10810,1857
10811,1817
10812,1795
10813,1806
10814,1841
10815,1874
10816,1875
10817,1808
10818,1751
10819,1753
10820,1749
10821,1751
10822,1789
10823,1814
10824,1863
10825,1857
10826,1796
10827,1735
10828,1747
10829,1769
10830,1795
10831,1810
10832,1858
10833,1830
10834,1770
10835,1733
10836,1765
10837,1878
10838,1990
10839,2225
10840,2690
10841,3436
10842,4095
10843,4095
10844,4095
10845,3942
10846,3133
10847,2450
10848,1968
10849,1814
10850,1825
10851,1834
10852,1791
10853,1807
10854,1872
10855,1894
10856,1821
10857,1795
10858,1807
10859,1805
10860,1825
10861,1863
10862,1798
10863,1741
10864,1727
10865,1757
10866,1811
10867,1808
10868,1806
10869,1821
10870,1856
10871,1898
10872,1897
10873,1856
10874,1882
10875,1878
10876,1827
10877,1831
10878,1899
10879,1894
10880,1872
10881,1870
10882,1921
10883,1969
10884,1982
10885,1927
10886,1921
10887,1931
10888,1981
10889,1998
10890,1988
10891,2005
10892,2032
10893,2054
10894,2097
10895,2160
10896,2160
10897,2160
10898,2224
10899,2270
10900,2267
10901,2273
10902,2303
10903,2362
10904,2386
10905,2363
10906,2375
10907,2495
10908,2503
10909,2469
10910,2448
10911,2497
10912,2551
10913,2559
10914,2496
10915,2450
10916,2419
10917,2291
10918,2113
10919,1986
10920,1964
10921,1931
10922,1847
10923,1804
10924,1754
10925,1680
10926,1621
10927,1578
10928,1594
10929,1562
10930,1520
10931,1503
10932,1506
10933,1411
10934,1396
10935,1423
10936,1509
10937,1555
10938,1587
10939,1475
10940,1421
10941,1440
10942,1453
10943,1472
10944,1530
10945,1530
10946,1511
10947,1513
10948,1515
10949,1535
10950,1553
10951,1554
10952,1535
10953,1584
10954,1587
10955,1578
10956,1535
10957,1594
10958,1624
10959,1611
10960,1584
10961,1623
10962,1647
10963,1616
10964,1591
10965,1631
10966,1648
10967,1616
10968,1603
10969,1685
10970,1707
10971,1659
10972,1622
10973,1631
10974,1647
10975,1635
10976,1644
10977,1639
10978,1664
10979,1633
10980,1639
10981,1662
10982,1683
10983,1682
10984,1646
10985,1599
10986,1605
10987,1636
10988,1635
10989,1629
10990,1665
10991,1665
10992,1639
10993,1654
10994,1671
10995,1683
10996,1669
10997,1674
10998,1712
10999,1712
11000,1703
11001,1683
11002,1654
11003,1680
11004,1691
11005,1681
11006,1678
11007,1719
11008,1712
11009,1682
11010,1655
11011,1695
11012,1765
11013,1750
11014,1733
11015,1691
11016,1702
11017,1716
11018,1703
11019,1715
11020,1744
11021,1742
11022,1750
11023,1776
11024,1759
11025,1744
11026,1744
11027,1749
11028,1767
11029,1759
11030,1728
11031,1697
11032,1744
11033,1791
11034,1786
11035,1747
11036,1777
11037,1777
11038,1755
11039,1715
11040,1775
11041,1825
11042,1813
11043,1780
11044,1761
11045,1774
11046,1774
11047,1750
11048,1782
11049,1818
11050,1807
11051,1771
11052,1759
11053,1808
11054,1819
11055,1776
11056,1747
11057,1785
11058,1777
11059,1824
11060,1826
11061,1839
11062,1852
11063,1846
11064,1811
11065,1805
11066,1806
11067,1791
11068,1773
11069,1798
11070,1866
11071,1890
11072,1855
11073,1808
11074,1811
11075,1826
11076,1840
11077,1847
11078,1874
11079,1875
11080,1857
11081,1861
11082,1914
11083,1926
11084,1930
11085,1932
11086,1952
11087,1933
11088,1936
11089,1957
11090,2015
11091,1983
11092,1947
11093,1904
11094,1903
11095,1936
11096,1901
11097,1842
11098,1808
11099,1806
11100,1776
11101,1763
11102,1754
11103,1806
11104,1840
11105,1829
11106,1779
11107,1822
11108,1851
11109,1840
11110,1807
11111,1841
11112,1855
11113,1787
11114,1851
11115,1879
11116,1818
11117,1753
11118,1750
11119,1869
11120,2114
11121,2516
11122,3070
11123,3919
11124,4095
11125,4095
11126,4095
11127,3712
11128,2890
11129,2231
11130,1797
11131,1643
11132,1690
11133,1783
11134,1856
11135,1918
11136,1929
11137,1845
11138,1751
11139,1728
11140,1783
11141,1881
11142,1918
11143,1879
11144,1839
11145,1843
11146,1829
11147,1823
11148,1837
11149,1842
11150,1789
11151,1760
11152,1794
11153,1872
11154,1875
11155,1856
11156,1840
11157,1885
11158,1905
11159,1909
11160,1909
11161,1982
11162,2020
11163,1965
11164,1878
11165,1879
11166,1951
11167,1968
11168,1957
11169,1979
11170,2017
11171,2027
11172,2029
11173,2085
11174,2185
11175,2209
11176,2187
11177,2157
11178,2154
11179,2157
11180,2214
11181,2286
11182,2339
11183,2359
11184,2406
11185,2416
11186,2380
11187,2352
11188,2359
11189,2406
11190,2480
11191,2542
11192,2559
11193,2623
11194,2711
11195,2619
11196,2390
11197,2230
11198,2190
11199,2207
11200,2210
11201,2158
11202,2034
11203,1938
11204,1866
11205,1821
11206,1731
11207,1616
11208,1639
11209,1682
11210,1623
11211,1561
11212,1535
11213,1503
11214,1425
11215,1377
11216,1391
11217,1415
11218,1406
11219,1450
11220,1602
11221,1648
11222,1583
11223,1555
11224,1520
11225,1463
11226,1417
11227,1449
11228,1495
11229,1478
11230,1460
11231,1488
11232,1611
11233,1655
11234,1683
11235,1712
11236,1662
11237,1605
11238,1587
11239,1563
11240,1603
11241,1638
11242,1584
11243,1553
11244,1606
11245,1648
11246,1653
11247,1603
11248,1661
11249,1759
11250,1717
11251,1584
11252,1466
11253,1530
11254,1674
11255,1687
11256,1619
11257,1661
11258,1693
11259,1721
11260,1681
11261,1599
11262,1586
11263,1623
11264,1769
11265,1718
11266,1578
11267,1473
11268,1509
11269,1762
11270,1925
11271,1943
11272,1804
11273,1629
11274,1634
11275,1638
11276,1589
11277,1648
11278,1901
11279,1994
11280,1808
11281,1679
11282,1616
11283,1535
11284,1475
11285,1535
11286,1719
11287,1872
11288,1929
11289,1834
11290,1776
11291,1722
11292,1749
11293,1822
11294,1872
11295,1893
11296,1665
11297,1424
11298,1455
11299,1703
11300,1913
11301,1894
11302,1680
11303,1571
11304,1561
11305,1649
11306,1839
11307,2066
11308,2125
11309,1831
11310,1648
11311,1835
11312,1920
11313,1823
11314,1734
11315,1744
11316,1662
11317,1565
11318,1712
11319,2246
11320,2320
11321,1689
11322,1199
11323,1249
11324,1613
11325,2022
11326,2180
11327,1968
11328,1776
11329,1557
11330,1463
11331,1614
11332,2001
11333,2357
11334,2337
11335,1900
11336,1738
11337,2059
11338,2194
11339,1977
11340,1840
11341,1759
11342,1675
11343,1473
11344,1520
11345,1821
11346,1827
11347,1762
11348,1763
11349,1868
11350,2018
11351,2029
11352,1885
11353,1987
11354,2263
11355,2198
11356,1815
11357,1740
11358,1942
11359,2326
11360,2320
11361,2065
11362,1871
11363,1846
11364,1849
11365,1669
11366,1525
11367,1616
11368,1929
11369,2255
11370,2112
11371,1725
11372,1640
11373,1743
11374,1859
11375,1889
11376,2095
11377,2481
11378,2319
11379,1603
11380,1136
11381,1445
11382,1823
11383,1757
11384,1585
11385,1595
11386,1694
11387,1834
11388,2109
11389,2211
11390,2179
11391,2384
11392,2775
11393,3498
11394,4095
11395,4095
11396,4051
11397,3663
11398,3088
11399,2425
11400,1857
11401,1596
11402,1767
11403,2126
11404,2109
11405,1906
11406,1761
11407,1595
11408,1489
11409,1479
11410,1600
11411,1741
11412,1808
11413,1759
11414,1692
11415,1733
11416,1905
11417,2098
11418,1937
11419,1645
11420,1535
11421,1568
11422,1744
11423,1897
11424,1892
11425,1799
11426,1715
11427,1679
11428,1735
11429,1776
11430,1776
11431,1811
11432,1862
11433,1860
11434,1839
11435,1831
11436,1898
11437,1903
11438,1874
11439,1884
11440,2032
11441,2038
11442,1938
11443,1921
11444,2014
11445,2083
11446,2006
11447,1936
11448,2060
11449,2293
11450,2242
11451,2112
11452,2157
11453,2186
11454,2127
11455,2126
11456,2301
11457,2553
11458,2541
11459,2315
11460,2171
11461,2271
11462,2437
11463,2659
11464,2701
11465,2432
11466,2217
11467,2105
11468,2091
11469,2144
11470,2141
11471,2030
11472,1936
11473,1907
11474,1846
11475,1762
11476,1653
11477,1585
11478,1570
11479,1473
11480,1375
11481,1391
11482,1511
11483,1535
11484,1600
11485,1583
11486,1558
11487,1478
11488,1446
11489,1443
11490,1360
11491,1265
11492,1252
11493,1408
11494,1738
11495,1920
11496,1786
11497,1625
11498,1502
11499,1428
11500,1488
11501,1497
11502,1409
11503,1439
11504,1392
11505,1216
11506,1222
11507,1469
11508,1603
11509,1568
11510,1644
11511,1758
11512,1649
11513,1440
11514,1381
11515,1486
11516,1578
11517,1594
11518,1584
11519,1639
11520,1658
11521,1599
11522,1578
11523,1645
11524,1827
11525,2053
11526,2097
11527,1868
11528,1626
11529,1490
11530,1517
11531,1523
11532,1461
11533,1407
11534,1430
11535,1471
11536,1535
11537,1575
11538,1590
11539,1642
11540,1750
11541,1745
11542,1662
11543,1775
11544,2167
11545,2032
11546,1417
11547,1137
11548,1296
11549,1558
11550,1703
11551,1801
11552,1825
11553,1828
11554,1823
11555,1739
11556,1597
11557,1483
11558,1487
11559,1535
11560,1648
11561,1744
11562,1806
11563,1746
11564,1634
11565,1648
11566,1709
11567,1716
11568,1733
11569,1725
11570,1725
11571,1712
11572,1711
11573,1747
11574,1751
11575,1701
11576,1661
11577,1708
11578,1782
11579,1775
11580,1723
11581,1735
11582,1751
11583,1777
11584,1771
11585,1744
11586,1762
11587,1747
11588,1705
11589,1701
11590,1781
11591,1818
11592,1786
11593,1732
11594,1771
11595,1762
11596,1776
11597,1782
11598,1870
11599,1951
11600,1947
11601,1947
11602,1889
11603,1936
11604,1909
11605,1795
11606,1805
11607,1922
11608,1945
11609,1841
11610,1795
11611,1835
11612,1835
11613,1790
11614,1779
11615,1840
11616,1846
11617,1792
11618,1754
11619,1799
11620,1789
11621,1808
11622,1767
11623,1765
11624,1765
11625,1744
11626,1713
11627,1749
11628,1841
11629,1821
11630,1758
11631,1748
11632,1840
11633,1846
11634,1799
11635,1725
11636,1779
11637,1923
11638,2169
11639,2657
11640,3497
11641,4095
11642,4095
11643,4095
11644,3841
11645,3139
11646,2505
11647,2047
11648,1870
11649,1826
11650,1781
11651,1728
11652,1769
11653,1835
11654,1834
11655,1809
11656,1808
11657,1843
11658,1840
11659,1791
11660,1793
11661,1852
11662,1846
11663,1822
11664,1806
11665,1823
11666,1834
11667,1833
11668,1829
11669,1886
11670,1902
11671,1838
11672,1809
11673,1825
11674,1855
11675,1857
11676,1864
11677,1930
11678,1972
11679,1929
11680,1904
11681,1920
11682,1962
11683,1946
11684,1931
11685,1947
11686,2011
11687,2002
11688,2000
11689,2039
11690,2056
11691,2018
11692,1986
11693,2023
11694,2137
11695,2171
11696,2143
11697,2144
11698,2223
11699,2291
11700,2288
11701,2274
11702,2352
11703,2449
11704,2419
11705,2391
11706,2432
11707,2480
11708,2493
11709,2467
11710,2469
11711,2515
11712,2480
11713,2395
11714,2348
11715,2353
11716,2282
11717,2132
11718,2003
11719,2007
11720,1980
11721,1863
11722,1747
11723,1729
11724,1694
11725,1607
11726,1569
11727,1603
11728,1611
11729,1511
11730,1451
11731,1488
11732,1535
11733,1520
11734,1470
11735,1478
11736,1535
11737,1511
11738,1429
11739,1455
11740,1525
11741,1535
11742,1481
11743,1468
11744,1553
11745,1535
11746,1472
11747,1463
11748,1512
11749,1601
11750,1535
11751,1497
11752,1535
11753,1591
11754,1519
11755,1458
11756,1520
11757,1609
11758,1589
11759,1535
11760,1571
11761,1648
11762,1625
11763,1567
11764,1581
11765,1664
11766,1652
11767,1584
11768,1589
11769,1677
11770,1682
11771,1610
11772,1582
11773,1651
11774,1673
11775,1630
11776,1597
11777,1660
11778,1712
11779,1647
11780,1584
11781,1626
11782,1693
11783,1717
11784,1606
11785,1635
11786,1722
11787,1680
11788,1601
11789,1657
11790,1699
11791,1696
11792,1617
11793,1613
11794,1698
11795,1675
11796,1607
11797,1591
11798,1675
11799,1686
11800,1639
11801,1599
11802,1667
11803,1725
11804,1672
11805,1611
11806,1662
11807,1723
11808,1693
11809,1637
11810,1674
11811,1757
11812,1712
11813,1641
11814,1647
11815,1743
11816,1728
11817,1655
11818,1658
11819,1745
11820,1737
11821,1685
11822,1675
11823,1754
11824,1779
11825,1711
11826,1667
11827,1733
11828,1783
11829,1717
11830,1670
11831,1731
11832,1837
11833,1833
11834,1795
11835,1837
11836,1887
11837,1844
11838,1805
11839,1829
11840,1919
11841,1939
11842,1878
11843,1831
11844,1863
11845,1835
11846,1767
11847,1744
11848,1813
11849,1841
11850,1773
11851,1712
11852,1733
11853,1745
11854,1695
11855,1664
11856,1713
11857,1778
11858,1761
11859,1713
11860,1727
11861,1776
11862,1765
11863,1712
11864,1698
11865,1762
11866,1792
11867,1741
11868,1704
11869,1726
11870,1719
11871,1737
11872,1903
11873,2330
11874,2893
11875,3659
11876,4095
11877,4095
11878,4095
11879,3613
11880,2864
11881,2311
11882,1948
11883,1749
11884,1669
11885,1693
11886,1776
11887,1807
11888,1786
11889,1779
11890,1836
11891,1823
11892,1781
11893,1758
11894,1794
11895,1797
11896,1776
11897,1756
11898,1791
11899,1815
11900,1815
11901,1792
11902,1795
11903,1831
11904,1838
11905,1807
11906,1816
11907,1862
11908,1862
11909,1834
11910,1831
11911,1883
11912,1898
11913,1882
11914,1867
11915,1910
11916,1942
