Sample_Index,ADC_Value
0,1433
1,2031
2,1493
3,900
4,1349
5,2076
6,1683
7,985
8,1262
9,2079
10,1900
11,1151
12,1211
13,2030
14,2036
15,1269
16,1131
17,1901
18,2096
19,1328
20,999
21,1683
22,2085
23,1392
24,887
25,1447
26,2027
27,1468
28,850
29,1297
30,2010
31,1616
32,898
33,1149
34,1957
35,1770
36,1003
37,1073
38,1906
39,1925
40,1152
41,1023
42,1835
43,2079
44,1327
45,998
46,1726
47,2160
48,1489
49,1023
50,1635
51,2237
52,1699
53,1098
54,1527
55,2253
56,1883
57,1195
58,1445
59,2251
60,2070
61,1305
62,1363
63,2192
64,2215
65,1437
66,1311
67,2109
68,2336
69,1597
70,1285
71,2002
72,2445
73,1776
74,1289
75,1877
76,2490
77,1954
78,1349
79,1776
80,2491
81,2128
82,1418
83,1663
84,2454
85,2295
86,1535
87,1580
88,2398
89,2422
90,1644
91,1495
92,2294
93,2540
94,1801
95,1473
96,2187
97,2637
98,1969
99,1476
100,2060
101,2673
102,2167
103,1520
104,1928
105,2653
106,2287
107,1581
108,1803
109,2609
110,2448
111,1683
112,1723
113,2547
114,2608
115,1824
116,1675
117,2459
118,2720
119,1966
120,1626
121,2330
122,2802
123,2128
124,1629
125,2203
126,2832
127,2294
128,1676
129,2076
130,2811
131,2450
132,1746
133,1969
134,2768
135,2611
136,1841
137,1870
138,2682
139,2747
140,1968
141,1806
142,2559
143,2847
144,2125
145,1783
146,2448
147,2929
148,2304
149,1847
150,2411
151,3117
152,2559
153,1927
154,2295
155,3067
156,2704
157,2003
158,2225
159,3039
160,2827
161,2000
162,1982
163,2783
164,2881
165,2119
166,1923
167,2681
168,2973
169,2224
170,1858
171,2518
172,3019
173,2353
174,1851
175,2379
176,3033
177,2507
178,1878
179,2247
180,3008
181,2672
182,1958
183,2120
184,2879
185,2744
186,2107
187,2308
188,3632
189,4095
190,3355
191,3102
192,4037
193,4095
194,2841
195,2204
196,2559
197,2906
198,2258
199,1825
200,2425
201,3186
202,2672
203,2047
204,2384
205,3150
206,2781
207,2067
208,2239
209,3056
210,2925
211,2160
212,2138
213,2935
214,3056
215,2269
216,2073
217,2818
218,3197
219,2423
220,2055
221,2687
222,3251
223,2557
224,2046
225,2532
226,3247
227,2714
228,2102
229,2431
230,3247
231,2883
232,2171
233,2314
234,3151
235,3050
236,2286
237,2261
238,3071
239,3231
240,2417
241,2210
242,2943
243,3361
244,2559
245,2215
246,2862
247,3523
248,2767
249,2245
250,2746
251,3583
252,2949
253,2295
254,2622
255,3515
256,3111
257,2347
258,2470
259,3340
260,3184
261,2336
262,2253
263,3009
264,3120
265,2299
266,2042
267,2715
268,3031
269,2285
270,1873
271,2474
272,2981
273,2365
274,1841
275,2315
276,2945
277,2480
278,1854
279,2180
280,2922
281,2624
282,1919
283,2059
284,2817
285,2726
286,1982
287,1942
288,2721
289,2843
290,2096
291,1870
292,2589
293,2928
294,2231
295,1850
296,2464
297,2982
298,2355
299,1836
300,2320
301,2983
302,2501
303,1867
304,2193
305,2945
306,2639
307,1907
308,2047
309,2851
310,2770
311,2003
312,1965
313,2742
314,2864
315,2101
316,1865
317,2585
318,2924
319,2208
320,1805
321,2416
322,2931
323,2318
324,1775
325,2251
326,2902
327,2435
328,1790
329,2113
330,2867
331,2559
332,1840
333,1972
334,2768
335,2687
336,1915
337,1851
338,2624
339,2763
340,2012
341,1786
342,2497
343,2833
344,2131
345,1724
346,2331
347,2863
348,2267
349,1712
350,2178
351,2833
352,2384
353,1734
354,2033
355,2767
356,2487
357,1769
358,1898
359,2686
360,2617
361,1857
362,1803
363,2559
364,2704
365,1951
366,1712
367,2416
368,2762
369,2080
370,1673
371,2271
372,2786
373,2213
374,1649
375,2113
376,2757
377,2322
378,1670
379,1959
380,2703
381,2443
382,1725
383,1831
384,2603
385,2538
386,1792
387,1723
388,2475
389,2624
390,1894
391,1648
392,2347
393,2693
394,2010
395,1599
396,2199
397,2726
398,2171
399,1661
400,2135
401,2809
402,2374
403,1709
404,1996
405,2746
406,2483
407,1779
408,1893
409,2641
410,2528
411,1737
412,1646
413,2398
414,2559
415,1825
416,1554
417,2240
418,2591
419,1910
420,1478
421,2071
422,2589
423,2019
424,1467
425,1914
426,2551
427,2140
428,1477
429,1765
430,2486
431,2239
432,1505
433,1599
434,2340
435,2327
436,1711
437,1854
438,2933
439,3542
440,2768
441,2448
442,2993
443,3269
444,2325
445,1637
446,1962
447,2347
448,1797
449,1328
450,1855
451,2555
452,2161
453,1502
454,1775
455,2490
456,2266
457,1535
458,1635
459,2387
460,2355
461,1634
462,1535
463,2280
464,2433
465,1721
466,1462
467,2149
468,2493
469,1853
470,1437
471,2014
472,2531
473,1986
474,1438
475,1878
476,2530
477,2157
478,1513
479,1775
480,2498
481,2279
482,1558
483,1648
484,2426
485,2423
486,1701
487,1606
488,2352
489,2531
490,1825
491,1557
492,2242
493,2629
494,1984
495,1535
496,2137
497,2687
498,2149
499,1587
500,2014
501,2702
502,2320
503,1658
504,1916
505,2669
506,2448
507,1715
508,1774
509,2507
510,2469
511,1695
512,1535
513,2251
514,2396
515,1659
516,1351
517,1999
518,2336
519,1661
520,1210
521,1763
522,2278
523,1728
524,1158
525,1586
526,2240
527,1845
528,1182
529,1434
530,2175
531,1962
532,1235
533,1311
534,2082
535,2061
536,1319
537,1218
538,1974
539,2163
540,1443
541,1161
542,1841
543,2226
544,1594
545,1157
546,1726
547,2261
548,1727
549,1161
550,1585
551,2250
552,1872
553,1204
554,1454
555,2201
556,1999
557,1275
558,1344
559,2115
560,2117
561,1381
562,1264
563,1993
564,2182
565,1469
566,1186
567,1863
568,2235
569,1594
570,1146
571,1710
572,2247
573,1725
574,1164
575,1579
576,2235
577,1851
578,1189
579,1423
580,2160
581,1967
582,1247
583,1317
584,2085
585,2095
586,1353
587,1221
588,1967
589,2162
590,1445
591,1153
592,1830
593,2222
594,1572
595,1109
596,1677
597,2227
598,1715
599,1145
600,1562
601,2227
602,1857
603,1186
604,1426
605,2181
606,1984
607,1258
608,1319
609,2097
610,2096
611,1345
612,1222
613,1969
614,2176
615,1470
616,1170
617,1845
618,2242
619,1614
620,1164
621,1718
622,2257
623,1733
624,1157
625,1569
626,2250
627,1887
628,1215
629,1455
630,2202
631,2005
632,1280
633,1341
634,2122
635,2134
636,1391
637,1261
638,1994
639,2211
640,1505
641,1214
642,1888
643,2278
644,1644
645,1171
646,1723
647,2283
648,1775
649,1200
650,1605
651,2266
652,1902
653,1234
654,1486
655,2259
656,2109
657,1408
658,1473
659,2236
660,2239
661,1507
662,1383
663,2131
664,2364
665,1666
666,1327
667,1926
668,2285
669,1638
670,1190
671,1747
672,2301
673,1778
674,1200
675,1593
676,2256
677,1883
678,1205
679,1437
680,2198
681,2011
682,1280
683,1324
684,2112
685,2145
686,1392
687,1249
688,1987
689,2191
690,1445
691,1119
692,1899
693,2512
694,2169
695,1977
696,2725
697,3527
698,2666
699,1863
700,2118
701,2608
702,1984
703,1093
704,1270
705,2106
706,2018
707,1337
708,1412
709,2211
710,2224
711,1457
712,1307
713,2065
714,2290
715,1574
716,1257
717,1933
718,2348
719,1712
720,1241
721,1803
722,2384
723,1867
724,1264
725,1665
726,2362
727,2000
728,1323
729,1558
730,2323
731,2157
732,1399
733,1446
734,2255
735,2289
736,1535
737,1393
738,2151
739,2384
740,1677
741,1364
742,2041
743,2475
744,1851
745,1392
746,1956
747,2542
748,2023
749,1413
750,1826
751,2537
752,2187
753,1490
754,1734
755,2517
756,2362
757,1611
758,1659
759,2480
760,2531
761,1763
762,1597
763,2347
764,2592
765,1851
766,1488
767,2147
768,2547
769,1865
770,1343
771,1883
772,2442
773,1879
774,1229
775,1615
776,2320
777,1943
778,1211
779,1429
780,2224
781,2032
782,1246
783,1275
784,2096
785,2121
786,1323
787,1170
788,1965
789,2211
790,1453
791,1115
792,1834
793,2283
794,1607
795,1100
796,1705
797,2326
798,1772
799,1122
800,1558
801,2309
802,1921
803,1168
804,1412
805,2258
806,2080
807,1266
808,1306
809,2162
810,2191
811,1365
812,1216
813,2058
814,2311
815,1517
816,1157
817,1904
818,2369
819,1657
820,1134
821,1749
822,2395
823,1823
824,1141
825,1595
826,2382
827,1985
828,1209
829,1455
830,2293
831,2099
832,1266
833,1296
834,2171
835,2208
836,1377
837,1219
838,2061
839,2306
840,1503
841,1153
842,1903
843,2368
844,1664
845,1129
846,1744
847,2391
848,1824
849,1148
850,1590
851,2370
852,1983
853,1207
854,1457
855,2306
856,2119
857,1291
858,1328
859,2207
860,2242
861,1410
862,1234
863,2067
864,2335
865,1535
866,1183
867,1937
868,2416
869,1697
870,1159
871,1771
872,2418
873,1854
874,1187
875,1629
876,2402
877,2007
878,1234
879,1477
880,2341
881,2169
882,1332
883,1363
884,2237
885,2274
886,1442
887,1277
888,2112
889,2381
890,1595
891,1221
892,1963
893,2435
894,1741
895,1200
896,1801
897,2451
898,1891
899,1213
900,1649
901,2433
902,2058
903,1282
904,1535
905,2433
906,2274
907,1459
908,1491
909,2353
910,2397
911,1570
912,1398
913,2255
914,2544
915,1734
916,1303
917,1991
918,2448
919,1755
920,1219
921,1838
922,2480
923,1902
924,1216
925,1653
926,2426
927,2032
928,1254
929,1488
930,2346
931,2178
932,1345
933,1363
934,2238
935,2293
936,1456
937,1276
938,2096
939,2349
940,1527
941,1165
942,2031
943,2748
944,2346
945,2078
946,2823
947,3726
948,2719
949,1855
950,2107
951,2701
952,2107
953,1162
954,1335
955,2249
956,2161
957,1386
958,1424
959,2306
960,2363
961,1511
962,1316
963,2151
964,2435
965,1648
966,1264
967,1997
968,2486
969,1790
970,1235
971,1847
972,2515
973,1967
974,1270
975,1698
976,2494
977,2128
978,1343
979,1575
980,2430
981,2267
982,1429
983,1449
984,2333
985,2405
986,1578
987,1394
988,2224
989,2506
990,1719
991,1338
992,2078
993,2559
994,1887
995,1350
996,1957
997,2640
998,2083
999,1395
1000,1837
1001,2653
1002,2287
1003,1491
1004,1725
1005,2599
1006,2467
1007,1647
1008,1654
1009,2519
1010,2606
1011,1759
1012,1571
1013,2393
1014,2686
1015,1872
1016,1457
1017,2160
1018,2629
1019,1899
1020,1305
1021,1862
1022,2490
1023,1909
1024,1200
1025,1600
1026,2382
1027,1990
1028,1179
1029,1387
1030,2255
1031,2097
1032,1252
1033,1254
1034,2128
1035,2192
1036,1335
1037,1136
1038,1968
1039,2260
1040,1471
1041,1085
1042,1813
1043,2320
1044,1633
1045,1076
1046,1680
1047,2352
1048,1808
1049,1122
1050,1535
1051,2338
1052,1977
1053,1200
1054,1406
1055,2256
1056,2112
1057,1285
1058,1294
1059,2162
1060,2230
1061,1398
1062,1201
1063,2031
1064,2331
1065,1535
1066,1153
1067,1885
1068,2384
1069,1687
1070,1126
1071,1712
1072,2379
1073,1831
1074,1124
1075,1522
1076,2307
1077,1955
1078,1180
1079,1389
1080,2240
1081,2111
1082,1296
1083,1296
1084,2137
1085,2211
1086,1398
1087,1205
1088,2016
1089,2317
1090,1535
1091,1154
1092,1853
1093,2345
1094,1685
1095,1142
1096,1710
1097,2366
1098,1845
1099,1168
1100,1535
1101,2320
1102,1984
1103,1225
1104,1411
1105,2241
1106,2114
1107,1318
1108,1303
1109,2145
1110,2231
1111,1426
1112,1218
1113,2011
1114,2309
1115,1558
1116,1168
1117,1878
1118,2384
1119,1719
1120,1168
1121,1729
1122,2383
1123,1859
1124,1193
1125,1595
1126,2365
1127,2027
1128,1261
1129,1450
1130,2282
1131,2161
1132,1361
1133,1344
1134,2162
1135,2254
1136,1457
1137,1261
1138,2056
1139,2352
1140,1601
1141,1208
1142,1898
1143,2407
1144,1773
1145,1221
1146,1766
1147,2405
1148,1898
1149,1229
1150,1611
1151,2367
1152,2041
1153,1295
1154,1487
1155,2305
1156,2199
1157,1436
1158,1442
1159,2294
1160,2401
1161,1614
1162,1393
1163,2176
1164,2480
1165,1757
1166,1378
1167,2070
1168,2526
1169,1823
1170,1231
1171,1754
1172,2401
1173,1923
1174,1261
1175,1615
1176,2361
1177,2032
1178,1275
1179,1437
1180,2249
1181,2128
1182,1339
1183,1333
1184,2160
1185,2240
1186,1443
1187,1233
1188,2016
1189,2336
1190,1597
1191,1182
1192,1836
1193,2304
1194,1742
1195,1379
1196,2209
1197,3280
1198,2928
1199,2273
1200,2486
1201,3127
1202,2614
1203,1616
1204,1501
1205,2126
1206,1968
1207,1234
1208,1309
1209,2201
1210,2332
1211,1563
1212,1334
1213,2090
1214,2384
1215,1661
1216,1271
1217,1942
1218,2433
1219,1804
1220,1254
1221,1776
1222,2418
1223,1953
1224,1307
1225,1667
1226,2412
1227,2112
1228,1377
1229,1535
1230,2352
1231,2255
1232,1488
1233,1466
1234,2257
1235,2352
1236,1597
1237,1385
1238,2133
1239,2431
1240,1746
1241,1365
1242,2027
1243,2515
1244,1916
1245,1394
1246,1926
1247,2582
1248,2110
1249,1456
1250,1811
1251,2559
1252,2277
1253,1557
1254,1725
1255,2523
1256,2436
1257,1680
1258,1663
1259,2457
1260,2559
1261,1819
1262,1616
1263,2362
1264,2682
1265,1966
1266,1570
1267,2206
1268,2682
1269,2034
1270,1466
1271,1938
1272,2531
1273,2030
1274,1342
1275,1664
1276,2375
1277,2042
1278,1295
1279,1430
1280,2203
1281,2090
1282,1307
1283,1278
1284,2067
1285,2175
1286,1411
1287,1195
1288,1925
1289,2225
1290,1523
1291,1143
1292,1794
1293,2282
1294,1671
1295,1136
1296,1666
1297,2307
1298,1829
1299,1169
1300,1519
1301,2269
1302,1969
1303,1232
1304,1395
1305,2217
1306,2119
1307,1347
1308,1313
1309,2128
1310,2229
1311,1461
1312,1233
1313,1997
1314,2316
1315,1600
1316,1204
1317,1858
1318,2349
1319,1732
1320,1191
1321,1715
1322,2354
1323,1877
1324,1216
1325,1566
1326,2304
1327,2005
1328,1270
1329,1432
1330,2234
1331,2133
1332,1360
1333,1326
1334,2130
1335,2234
1336,1458
1337,1232
1338,1987
1339,2307
1340,1587
1341,1183
1342,1834
1343,2327
1344,1728
1345,1196
1346,1712
1347,2353
1348,1873
1349,1225
1350,1571
1351,2317
1352,2013
1353,1273
1354,1428
1355,2230
1356,2133
1357,1361
1358,1334
1359,2146
1360,2256
1361,1486
1362,1263
1363,2000
1364,2307
1365,1600
1366,1209
1367,1872
1368,2374
1369,1755
1370,1200
1371,1709
1372,2354
1373,1883
1374,1232
1375,1591
1376,2343
1377,2047
1378,1323
1379,1474
1380,2263
1381,2167
1382,1387
1383,1347
1384,2157
1385,2282
1386,1517
1387,1297
1388,2045
1389,2363
1390,1654
1391,1253
1392,1901
1393,2397
1394,1778
1395,1228
1396,1748
1397,2405
1398,1931
1399,1258
1400,1587
1401,2327
1402,2045
1403,1310
1404,1479
1405,2288
1406,2208
1407,1429
1408,1413
1409,2251
1410,2389
1411,1655
1412,1437
1413,2169
1414,2466
1415,1765
1416,1377
1417,2039
1418,2559
1419,1940
1420,1349
1421,1806
1422,2414
1423,1940
1424,1298
1425,1655
1426,2386
1427,2078
1428,1321
1429,1473
1430,2277
1431,2183
1432,1403
1433,1363
1434,2164
1435,2279
1436,1509
1437,1280
1438,2022
1439,2352
1440,1649
1441,1247
1442,1879
1443,2353
1444,1715
1445,1174
1446,1810
1447,2683
1448,2510
1449,2128
1450,2629
1451,3580
1452,2949
1453,2017
1454,1987
1455,2542
1456,2209
1457,1283
1458,1221
1459,2090
1460,2284
1461,1582
1462,1381
1463,2144
1464,2448
1465,1718
1466,1306
1467,1962
1468,2469
1469,1852
1470,1293
1471,1808
1472,2459
1473,1990
1474,1324
1475,1680
1476,2446
1477,2154
1478,1406
1479,1569
1480,2375
1481,2288
1482,1504
1483,1474
1484,2302
1485,2419
1486,1653
1487,1427
1488,2188
1489,2507
1490,1795
1491,1392
1492,2054
1493,2558
1494,1947
1495,1395
1496,1917
1497,2587
1498,2119
1499,1447
1500,1808
1501,2598
1502,2298
1503,1535
1504,1715
1505,2544
1506,2463
1507,1678
1508,1657
1509,2502
1510,2640
1511,1840
1512,1606
1513,2388
1514,2736
1515,1986
1516,1579
1517,2245
1518,2764
1519,2103
1520,1511
1521,2015
1522,2670
1523,2143
1524,1410
1525,1729
1526,2485
1527,2160
1528,1349
1529,1478
1530,2305
1531,2183
1532,1337
1533,1281
1534,2130
1535,2241
1536,1417
1537,1189
1538,1998
1539,2333
1540,1566
1541,1138
1542,1841
1543,2373
1544,1707
1545,1126
1546,1690
1547,2384
1548,1872
1549,1156
1550,1535
1551,2346
1552,2023
1553,1238
1554,1412
1555,2286
1556,2181
1557,1345
1558,1307
1559,2181
1560,2295
1561,1456
1562,1216
1563,2023
1564,2371
1565,1617
1566,1187
1567,1901
1568,2434
1569,1775
1570,1173
1571,1733
1572,2439
1573,1925
1574,1201
1575,1581
1576,2393
1577,2082
1578,1277
1579,1441
1580,2314
1581,2200
1582,1349
1583,1314
1584,2186
1585,2308
1586,1473
1587,1233
1588,2041
1589,2385
1590,1620
1591,1196
1592,1905
1593,2449
1594,1786
1595,1172
1596,1725
1597,2432
1598,1922
1599,1212
1600,1575
1601,2387
1602,2075
1603,1267
1604,1431
1605,2309
1606,2213
1607,1369
1608,1323
1609,2187
1610,2307
1611,1486
1612,1247
1613,2064
1614,2413
1615,1642
1616,1211
1617,1914
1618,2455
1619,1787
1620,1189
1621,1743
1622,2448
1623,1940
1624,1226
1625,1600
1626,2416
1627,2098
1628,1287
1629,1457
1630,2337
1631,2241
1632,1408
1633,1359
1634,2225
1635,2350
1636,1506
1637,1251
1638,2082
1639,2441
1640,1673
1641,1225
1642,1926
1643,2480
1644,1819
1645,1222
1646,1770
1647,2478
1648,1971
1649,1251
1650,1634
1651,2455
1652,2151
1653,1361
1654,1556
1655,2447
1656,2367
1657,1520
1658,1463
1659,2333
1660,2475
1661,1650
1662,1411
1663,2224
1664,2549
1665,1730
1666,1243
1667,1933
1668,2485
1669,1837
1670,1230
1671,1765
1672,2467
1673,1967
1674,1231
1675,1594
1676,2401
1677,2083
1678,1271
1679,1439
1680,2317
1681,2219
1682,1363
1683,1337
1684,2220
1685,2341
1686,1494
1687,1223
1688,2016
1689,2373
1690,1682
1691,1424
1692,2416
1693,3439
1694,2832
1695,2229
1696,2621
1697,3248
1698,2495
1699,1557
1700,1687
1701,2347
1702,1971
1703,1183
1704,1407
1705,2350
1706,2285
1707,1437
1708,1392
1709,2273
1710,2414
1711,1573
1712,1298
1713,2112
1714,2467
1715,1695
1716,1247
1717,1950
1718,2497
1719,1841
1720,1241
1721,1791
1722,2495
1723,1989
1724,1264
1725,1643
1726,2479
1727,2175
1728,1361
1729,1535
1730,2427
1731,2343
1732,1501
1733,1446
1734,2317
1735,2449
1736,1626
1737,1374
1738,2192
1739,2549
1740,1783
1741,1355
1742,2079
1743,2657
1744,1990
1745,1374
1746,1930
1747,2656
1748,2160
1749,1439
1750,1813
1751,2647
1752,2352
1753,1535
1754,1706
1755,2583
1756,2496
1757,1665
1758,1618
1759,2493
1760,2647
1761,1808
1762,1535
1763,2332
1764,2679
1765,1874
1766,1405
1767,2083
1768,2610
1769,1908
1770,1277
1771,1805
1772,2496
1773,1969
1774,1213
1775,1535
1776,2363
1777,2046
1778,1219
1779,1362
1780,2237
1781,2144
1782,1292
1783,1232
1784,2111
1785,2256
1786,1419
1787,1159
1788,1975
1789,2333
1790,1554
1791,1102
1792,1809
1793,2384
1794,1730
1795,1123
1796,1679
1797,2384
1798,1878
1799,1154
1800,1520
1801,2352
1802,2058
1803,1246
1804,1407
1805,2290
1806,2197
1807,1346
1808,1280
1809,2153
1810,2290
1811,1463
1812,1209
1813,2006
1814,2367
1815,1610
1816,1168
1817,1866
1818,2418
1819,1758
1820,1137
1821,1687
1822,2414
1823,1913
1824,1177
1825,1523
1826,2343
1827,2026
1828,1215
1829,1377
1830,2256
1831,2171
1832,1313
1833,1255
1834,2132
1835,2279
1836,1440
1837,1169
1838,1985
1839,2355
1840,1584
1841,1132
1842,1828
1843,2385
1844,1728
1845,1117
1846,1665
1847,2375
1848,1872
1849,1142
1850,1502
1851,2341
1852,2036
1853,1226
1854,1366
1855,2247
1856,2162
1857,1314
1858,1258
1859,2129
1860,2272
1861,1428
1862,1168
1863,1979
1864,2351
1865,1587
1866,1126
1867,1817
1868,2387
1869,1744
1870,1135
1871,1679
1872,2393
1873,1889
1874,1157
1875,1509
1876,2331
1877,2030
1878,1219
1879,1360
1880,2237
1881,2160
1882,1324
1883,1262
1884,2122
1885,2261
1886,1424
1887,1166
1888,1984
1889,2363
1890,1595
1891,1145
1892,1858
1893,2451
1894,1827
1895,1242
1896,1802
1897,2514
1898,2005
1899,1267
1900,1625
1901,2473
1902,2206
1903,1392
1904,1499
1905,2315
1906,2193
1907,1329
1908,1271
1909,2145
1910,2286
1911,1434
1912,1166
1913,1965
1914,2320
1915,1559
1916,1107
1917,1799
1918,2352
1919,1714
1920,1113
1921,1648
1922,2352
1923,1867
1924,1141
1925,1472
1926,2272
1927,1973
1928,1162
1929,1289
1930,2241
1931,2382
1932,1873
1933,2096
1934,3190
1935,3457
1936,2320
1937,1858
1938,2448
1939,2589
1940,1594
1941,976
1942,1628
1943,2254
1944,1707
1945,1172
1946,1719
1947,2417
1948,1933
1949,1204
1950,1524
1951,2338
1952,2066
1953,1270
1954,1403
1955,2259
1956,2193
1957,1371
1958,1296
1959,2141
1960,2303
1961,1504
1962,1233
1963,1999
1964,2362
1965,1648
1966,1214
1967,1875
1968,2435
1969,1834
1970,1246
1971,1747
1972,2447
1973,2003
1974,1308
1975,1631
1976,2417
1977,2157
1978,1383
1979,1515
1980,2351
1981,2301
1982,1503
1983,1434
1984,2261
1985,2430
1986,1671
1987,1410
1988,2164
1989,2530
1990,1827
1991,1394
1992,2065
1993,2628
1994,2025
1995,1439
1996,1951
1997,2647
1998,2187
1999,1474
2000,1799
2001,2589
2002,2320
2003,1535
2004,1633
2005,2427
2006,2337
2007,1509
2008,1400
2009,2183
2010,2303
2011,1497
2012,1203
2013,1920
2014,2253
2015,1521
2016,1079
2017,1702
2018,2234
2019,1643
2020,1072
2021,1535
2022,2208
2023,1758
2024,1077
2025,1383
2026,2160
2027,1895
2028,1145
2029,1264
2030,2069
2031,2019
2032,1255
2033,1188
2034,1986
2035,2149
2036,1395
2037,1134
2038,1858
2039,2223
2040,1522
2041,1093
2042,1721
2043,2256
2044,1680
2045,1107
2046,1584
2047,2249
2048,1825
2049,1152
2050,1466
2051,2227
2052,1971
2053,1227
2054,1343
2055,2157
2056,2111
2057,1332
2058,1243
2059,2030
2060,2191
2061,1443
2062,1182
2063,1898
2064,2252
2065,1566
2066,1136
2067,1755
2068,2282
2069,1711
2070,1139
2071,1606
2072,2275
2073,1854
2074,1177
2075,1471
2076,2236
2077,1987
2078,1237
2079,1339
2080,2149
2081,2128
2082,1365
2083,1271
2084,2045
2085,2203
2086,1454
2087,1199
2088,1922
2089,2288
2090,1610
2091,1168
2092,1776
2093,2317
2094,1764
2095,1188
2096,1648
2097,2320
2098,1904
2099,1221
2100,1488
2101,2254
2102,2027
2103,1290
2104,1387
2105,2183
2106,2164
2107,1399
2108,1294
2109,2069
2110,2256
2111,1520
2112,1232
2113,1936
2114,2311
2115,1654
2116,1222
2117,1813
2118,2353
2119,1803
2120,1227
2121,1665
2122,2342
2123,1936
2124,1259
2125,1535
2126,2301
2127,2079
2128,1329
2129,1407
2130,2195
2131,2174
2132,1422
2133,1315
2134,2092
2135,2276
2136,1535
2137,1255
2138,1943
2139,2339
2140,1722
2141,1310
2142,1915
2143,2449
2144,1891
2145,1326
2146,1776
2147,2437
2148,2055
2149,1405
2150,1663
2151,2356
2152,2078
2153,1307
2154,1383
2155,2161
2156,2142
2157,1399
2158,1296
2159,2041
2160,2211
2161,1471
2162,1189
2163,1882
2164,2229
2165,1574
2166,1145
2167,1725
2168,2235
2169,1695
2170,1155
2171,1595
2172,2226
2173,1808
2174,1133
2175,1377
2176,2117
2177,1987
2178,1479
2179,1881
2180,2937
2181,3105
2182,2302
2183,2032
2184,2624
2185,2640
2186,1687
2187,1170
2188,1685
2189,2000
2190,1415
2191,1082
2192,1706
2193,2239
2194,1705
2195,1152
2196,1574
2197,2195
2198,1787
2199,1136
2200,1404
2201,2117
2202,1892
2203,1196
2204,1285
2205,2019
2206,1972
2207,1247
2208,1152
2209,1875
2210,2035
2211,1350
2212,1098
2213,1760
2214,2099
2215,1463
2216,1070
2217,1631
2218,2133
2219,1615
2220,1082
2221,1510
2222,2139
2223,1748
2224,1127
2225,1389
2226,2096
2227,1882
2228,1205
2229,1295
2230,2032
2231,2001
2232,1294
2233,1201
2234,1933
2235,2095
2236,1401
2237,1153
2238,1825
2239,2186
2240,1562
2241,1151
2242,1713
2243,2219
2244,1685
2245,1150
2246,1578
2247,2202
2248,1808
2249,1167
2250,1392
2251,2067
2252,1819
2253,1092
2254,1147
2255,1851
2256,1777
2257,1023
2258,895
2259,1599
2260,1743
2261,1021
2262,727
2263,1374
2264,1723
2265,1091
2266,659
2267,1194
2268,1696
2269,1177
2270,638
2271,1040
2272,1662
2273,1276
2274,654
2275,893
2276,1598
2277,1377
2278,689
2279,765
2280,1501
2281,1488
2282,796
2283,705
2284,1419
2285,1581
2286,895
2287,637
2288,1286
2289,1642
2290,1014
2291,613
2292,1152
2293,1649
2294,1136
2295,614
2296,1014
2297,1647
2298,1269
2299,653
2300,894
2301,1595
2302,1375
2303,695
2304,765
2305,1478
2306,1455
2307,766
2308,670
2309,1366
2310,1525
2311,862
2312,624
2313,1258
2314,1587
2315,961
2316,567
2317,1104
2318,1605
2319,1094
2320,575
2321,966
2322,1591
2323,1225
2324,611
2325,853
2326,1535
2327,1338
2328,672
2329,739
2330,1461
2331,1441
2332,754
2333,659
2334,1362
2335,1522
2336,867
2337,621
2338,1239
2339,1587
2340,994
2341,609
2342,1143
2343,1632
2344,1136
2345,627
2346,1022
2347,1635
2348,1260
2349,674
2350,917
2351,1609
2352,1409
2353,757
2354,842
2355,1557
2356,1530
2357,855
2358,784
2359,1479
2360,1647
2361,991
2362,759
2363,1390
2364,1711
2365,1114
2366,739
2367,1274
2368,1757
2369,1264
2370,757
2371,1165
2372,1760
2373,1407
2374,832
2375,1087
2376,1762
2377,1535
2378,896
2379,987
2380,1707
2381,1685
2382,1023
2383,953
2384,1650
2385,1803
2386,1165
2387,947
2388,1616
2389,1968
2390,1403
2391,1034
2392,1555
2393,2014
2394,1522
2395,1042
2396,1475
2397,2102
2398,1719
2399,1087
2400,1285
2401,1936
2402,1722
2403,1086
2404,1183
2405,1889
2406,1845
2407,1181
2408,1109
2409,1799
2410,1936
2411,1277
2412,1042
2413,1695
2414,2020
2415,1424
2416,1056
2417,1611
2418,2096
2419,1590
2420,1088
2421,1493
2422,2077
2423,1671
2424,1105
2425,1503
2426,2420
2427,2507
2428,2111
2429,2330
2430,3056
2431,2845
2432,2026
2433,1777
2434,2239
2435,2153
2436,1365
2437,1127
2438,1846
2439,2258
2440,1722
2441,1363
2442,1905
2443,2367
2444,1847
2445,1344
2446,1764
2447,2361
2448,1983
2449,1392
2450,1663
2451,2352
2452,2151
2453,1494
2454,1595
2455,2307
2456,2279
2457,1607
2458,1535
2459,2250
2460,2397
2461,1741
2462,1519
2463,2170
2464,2493
2465,1898
2466,1528
2467,2099
2468,2581
2469,2086
2470,1598
2471,2015
2472,2628
2473,2253
2474,1658
2475,1934
2476,2629
2477,2417
2478,1776
2479,1885
2480,2618
2481,2591
2482,1907
2483,1843
2484,2559
2485,2736
2486,2064
2487,1836
2488,2507
2489,2873
2490,2256
2491,1872
2492,2441
2493,2962
2494,2413
2495,1899
2496,2320
2497,2960
2498,2534
2499,1899
2500,2148
2501,2831
2502,2558
2503,1849
2504,1919
2505,2624
2506,2551
2507,1838
2508,1747
2509,2450
2510,2587
2511,1889
2512,1650
2513,2305
2514,2635
2515,1999
2516,1611
2517,2176
2518,2677
2519,2149
2520,1635
2521,2065
2522,2676
2523,2279
2524,1654
2525,1923
2526,2635
2527,2409
2528,1733
2529,1854
2530,2607
2531,2559
2532,1852
2533,1788
2534,2514
2535,2688
2536,1997
2537,1759
2538,2439
2539,2774
2540,2133
2541,1744
2542,2320
2543,2843
2544,2295
2545,1774
2546,2215
2547,2854
2548,2418
2549,1786
2550,2077
2551,2818
2552,2559
2553,1872
2554,1969
2555,2745
2556,2698
2557,1961
2558,1873
2559,2625
2560,2784
2561,2071
2562,1834
2563,2517
2564,2887
2565,2218
2566,1807
2567,2375
2568,2896
2569,2321
2570,1792
2571,2243
2572,2909
2573,2481
2574,1849
2575,2129
2576,2871
2577,2623
2578,1905
2579,2003
2580,2781
2581,2736
2582,2001
2583,1933
2584,2677
2585,2838
2586,2118
2587,1872
2588,2559
2589,2931
2590,2256
2591,1840
2592,2426
2593,2960
2594,2384
2595,1849
2596,2300
2597,2975
2598,2530
2599,1892
2600,2176
2601,2916
2602,2655
2603,1945
2604,2055
2605,2832
2606,2768
2607,2012
2608,1941
2609,2719
2610,2892
2611,2157
2612,1899
2613,2595
2614,2953
2615,2263
2616,1845
2617,2447
2618,3005
2619,2416
2620,1867
2621,2319
2622,2993
2623,2543
2624,1895
2625,2187
2626,2951
2627,2686
2628,1974
2629,2124
2630,2955
2631,2905
2632,2141
2633,2061
2634,2832
2635,3024
2636,2261
2637,2020
2638,2755
2639,3173
2640,2380
2641,1906
2642,2475
2643,3024
2644,2416
2645,1856
2646,2307
2647,2983
2648,2525
2649,1859
2650,2147
2651,2891
2652,2622
2653,1890
2654,2001
2655,2801
2656,2752
2657,1979
2658,1891
2659,2670
2660,2850
2661,2102
2662,1821
2663,2498
2664,2834
2665,2175
2666,1875
2667,2687
2668,3824
2669,3323
2670,2799
2671,3347
2672,4095
2673,3216
2674,2305
2675,2383
2676,2942
2677,2513
2678,1735
2679,1876
2680,2733
2681,2752
2682,2031
2683,1959
2684,2721
2685,2878
2686,2122
2687,1845
2688,2530
2689,2887
2690,2192
2691,1772
2692,2355
2693,2895
2694,2320
2695,1782
2696,2238
2697,2896
2698,2474
2699,1830
2700,2138
2701,2898
2702,2640
2703,1901
2704,1994
2705,2775
2706,2748
2707,1997
2708,1905
2709,2679
2710,2843
2711,2125
2712,1867
2713,2552
2714,2911
2715,2233
2716,1830
2717,2415
2718,2944
2719,2363
2720,1836
2721,2293
2722,2986
2723,2543
2724,1890
2725,2167
2726,2928
2727,2688
2728,1985
2729,2101
2730,2871
2731,2816
2732,2090
2733,1995
2734,2741
2735,2927
2736,2214
2737,1950
2738,2611
2739,2953
2740,2262
2741,1827
2742,2371
2743,2873
2744,2288
2745,1713
2746,2102
2747,2704
2748,2279
2749,1618
2750,1866
2751,2554
2752,2309
2753,1609
2754,1705
2755,2432
2756,2379
2757,1665
2758,1589
2759,2304
2760,2434
2761,1744
2762,1501
2763,2170
2764,2497
2765,1859
2766,1460
2767,2034
2768,2519
2769,1973
2770,1453
2771,1888
2772,2507
2773,2123
2774,1499
2775,1776
2776,2477
2777,2240
2778,1535
2779,1639
2780,2381
2781,2350
2782,1641
2783,1564
2784,2283
2785,2427
2786,1744
2787,1493
2788,2151
2789,2475
2790,1840
2791,1438
2792,2005
2793,2496
2794,1962
2795,1424
2796,1849
2797,2466
2798,2064
2799,1430
2800,1701
2801,2399
2802,2176
2803,1478
2804,1583
2805,2315
2806,2266
2807,1535
2808,1463
2809,2187
2810,2326
2811,1633
2812,1389
2813,2064
2814,2393
2815,1766
2816,1360
2817,1921
2818,2413
2819,1871
2820,1332
2821,1775
2822,2393
2823,1985
2824,1349
2825,1629
2826,2336
2827,2119
2828,1430
2829,1534
2830,2267
2831,2211
2832,1479
2833,1403
2834,2145
2835,2291
2836,1595
2837,1349
2838,2033
2839,2365
2840,1712
2841,1298
2842,1877
2843,2382
2844,1838
2845,1313
2846,1759
2847,2368
2848,1946
2849,1302
2850,1600
2851,2305
2852,2078
2853,1377
2854,1463
2855,2217
2856,2162
2857,1431
2858,1375
2859,2115
2860,2256
2861,1559
2862,1328
2863,2007
2864,2330
2865,1683
2866,1297
2867,1919
2868,2448
2869,1923
2870,1392
2871,1838
2872,2465
2873,2057
2874,1405
2875,1710
2876,2441
2877,2183
2878,1438
2879,1499
2880,2233
2881,2163
2882,1423
2883,1342
2884,2103
2885,2245
2886,1520
2887,1265
2888,1954
2889,2285
2890,1607
2891,1197
2892,1793
2893,2288
2894,1721
2895,1185
2896,1653
2897,2289
2898,1855
2899,1209
2900,1497
2901,2205
2902,1922
2903,1244
2904,1497
2905,2514
2906,2783
2907,2287
2908,2311
2909,3055
2910,3024
2911,2112
2912,1648
2913,2094
2914,2206
2915,1424
2916,1039
2917,1728
2918,2320
2919,1789
2920,1255
2921,1727
2922,2357
2923,1914
2924,1262
2925,1557
2926,2287
2927,2026
2928,1311
2929,1439
2930,2224
2931,2153
2932,1394
2933,1337
2934,2115
2935,2258
2936,1533
2937,1293
2938,1995
2939,2318
2940,1648
2941,1247
2942,1863
2943,2370
2944,1813
2945,1276
2946,1740
2947,2381
2948,1957
2949,1321
2950,1633
2951,2367
2952,2114
2953,1397
2954,1527
2955,2313
2956,2257
2957,1522
2958,1468
2959,2233
2960,2381
2961,1669
2962,1434
2963,2158
2964,2484
2965,1824
2966,1431
2967,2058
2968,2559
2969,2001
2970,1459
2971,1924
2972,2547
2973,2142
2974,1507
2975,1808
2976,2515
2977,2240
2978,1497
2979,1588
2980,2310
2981,2223
2982,1456
2983,1360
2984,2096
2985,2201
2986,1447
2987,1175
2988,1858
2989,2181
2990,1509
2991,1094
2992,1673
2993,2175
2994,1616
2995,1083
2996,1526
2997,2155
2998,1730
2999,1103
3000,1392
3001,2110
3002,1853
3003,1155
3004,1267
3005,2027
3006,1972
3007,1260
3008,1202
3009,1959
3010,2093
3011,1369
3012,1131
3013,1835
3014,2169
3015,1520
3016,1115
3017,1714
3018,2219
3019,1680
3020,1161
3021,1614
3022,2229
3023,1808
3024,1182
3025,1475
3026,2189
3027,1943
3028,1257
3029,1363
3030,2110
3031,2031
3032,1307
3033,1246
3034,1989
3035,2131
3036,1427
3037,1186
3038,1860
3039,2177
3040,1533
3041,1143
3042,1729
3043,2210
3044,1667
3045,1152
3046,1609
3047,2221
3048,1805
3049,1174
3050,1469
3051,2176
3052,1924
3053,1232
3054,1347
3055,2099
3056,2037
3057,1328
3058,1258
3059,1998
3060,2131
3061,1438
3062,1205
3063,1878
3064,2201
3065,1569
3066,1174
3067,1755
3068,2239
3069,1696
3070,1185
3071,1630
3072,2237
3073,1824
3074,1207
3075,1498
3076,2199
3077,1959
3078,1283
3079,1392
3080,2126
3081,2070
3082,1383
3083,1328
3084,2033
3085,2155
3086,1470
3087,1259
3088,1922
3089,2219
3090,1586
3091,1222
3092,1794
3093,2243
3094,1707
3095,1228
3096,1682
3097,2258
3098,1842
3099,1256
3100,1565
3101,2237
3102,1975
3103,1327
3104,1457
3105,2155
3106,2064
3107,1381
3108,1355
3109,2067
3110,2169
3111,1518
3112,1345
3113,2030
3114,2335
3115,1727
3116,1374
3117,1943
3118,2390
3119,1858
3120,1394
3121,1868
3122,2433
3123,1979
3124,1345
3125,1611
3126,2255
3127,2000
3128,1360
3129,1487
3130,2182
3131,2097
3132,1424
3133,1392
3134,2086
3135,2164
3136,1488
3137,1297
3138,1946
3139,2223
3140,1601
3141,1258
3142,1841
3143,2275
3144,1725
3145,1232
3146,1671
3147,2224
3148,1808
3149,1334
3150,1830
3151,2775
3152,2809
3153,2340
3154,2475
3155,3088
3156,2815
3157,1979
3158,1712
3159,2151
3160,2071
3161,1373
3162,1245
3163,1984
3164,2319
3165,1721
3166,1386
3167,1954
3168,2368
3169,1824
3170,1344
3171,1783
3172,2345
3173,1919
3174,1347
3175,1653
3176,2301
3177,2035
3178,1395
3179,1535
3180,2242
3181,2173
3182,1493
3183,1478
3184,2182
3185,2278
3186,1630
3187,1440
3188,2096
3189,2368
3190,1760
3191,1423
3192,1990
3193,2414
3194,1884
3195,1435
3196,1901
3197,2454
3198,2034
3199,1472
3200,1798
3201,2445
3202,2194
3203,1574
3204,1728
3205,2422
3206,2325
3207,1665
3208,1666
3209,2366
3210,2460
3211,1808
3212,1648
3213,2298
3214,2559
3215,1951
3216,1637
3217,2213
3218,2637
3219,2096
3220,1634
3221,2071
3222,2602
3223,2160
3224,1582
3225,1858
3226,2453
3227,2155
3228,1488
3229,1613
3230,2266
3231,2147
3232,1465
3233,1426
3234,2093
3235,2153
3236,1483
3237,1309
3238,1954
3239,2193
3240,1566
3241,1231
3242,1806
3243,2224
3244,1682
3245,1230
3246,1683
3247,2228
3248,1810
3249,1255
3250,1559
3251,2192
3252,1929
3253,1317
3254,1488
3255,2175
3256,2065
3257,1392
3258,1387
3259,2085
3260,2165
3261,1503
3262,1342
3263,1998
3264,2247
3265,1622
3266,1293
3267,1877
3268,2294
3269,1755
3270,1298
3271,1762
3272,2294
3273,1856
3274,1299
3275,1643
3276,2281
3277,1990
3278,1345
3279,1501
3280,2198
3281,2094
3282,1424
3283,1416
3284,2109
3285,2177
3286,1507
3287,1338
3288,1993
3289,2235
3290,1604
3291,1283
3292,1873
3293,2283
3294,1729
3295,1281
3296,1757
3297,2299
3298,1868
3299,1311
3300,1632
3301,2256
3302,1963
3303,1333
3304,1504
3305,2195
3306,2084
3307,1415
3308,1424
3309,2132
3310,2185
3311,1499
3312,1329
3313,2005
3314,2263
3315,1628
3316,1296
3317,1883
3318,2301
3319,1754
3320,1296
3321,1761
3322,2310
3323,1874
3324,1323
3325,1648
3326,2288
3327,1998
3328,1359
3329,1525
3330,2224
3331,2107
3332,1437
3333,1446
3334,2142
3335,2192
3336,1515
3337,1358
3338,2029
3339,2271
3340,1630
3341,1322
3342,1921
3343,2327
3344,1765
3345,1322
3346,1809
3347,2350
3348,1906
3349,1346
3350,1691
3351,2333
3352,2030
3353,1402
3354,1587
3355,2285
3356,2151
3357,1467
3358,1480
3359,2191
3360,2251
3361,1590
3362,1463
3363,2160
3364,2413
3365,1793
3366,1473
3367,2071
3368,2471
3369,1904
3370,1472
3371,1988
3372,2525
3373,2029
3374,1415
3375,1725
3376,2352
3377,2047
3378,1411
3379,1595
3380,2282
3381,2135
3382,1455
3383,1468
3384,2178
3385,2224
3386,1531
3387,1374
3388,2064
3389,2303
3390,1658
3391,1337
3392,1938
3393,2343
3394,1765
3395,1303
3396,1791
3397,2306
3398,1851
3399,1395
3400,1959
3401,2915
3402,2875
3403,2363
3404,2539
3405,3183
3406,2842
3407,1971
3408,1759
3409,2244
3410,2131
3411,1392
3412,1305
3413,2081
3414,2354
3415,1725
3416,1416
3417,2033
3418,2432
3419,1843
3420,1391
3421,1896
3422,2426
3423,1938
3424,1372
3425,1747
3426,2399
3427,2081
3428,1428
3429,1630
3430,2342
3431,2201
3432,1517
3433,1535
3434,2283
3435,2327
3436,1633
3437,1491
3438,2201
3439,2416
3440,1759
3441,1461
3442,2087
3443,2480
3444,1899
3445,1459
3446,1977
3447,2512
3448,2039
3449,1487
3450,1871
3451,2518
3452,2193
3453,1555
3454,1769
3455,2490
3456,2341
3457,1664
3458,1709
3459,2449
3460,2493
3461,1786
3462,1647
3463,2362
3464,2608
3465,1938
3466,1649
3467,2289
3468,2683
3469,2064
3470,1607
3471,2124
3472,2659
3473,2151
3474,1568
3475,1919
3476,2540
3477,2160
3478,1472
3479,1676
3480,2367
3481,2160
3482,1429
3483,1465
3484,2208
3485,2213
3486,1472
3487,1328
3488,2032
3489,2238
3490,1535
3491,1258
3492,1916
3493,2299
3494,1664
3495,1219
3496,1779
3497,2319
3498,1801
3499,1229
3500,1631
3501,2288
3502,1917
3503,1251
3504,1515
3505,2259
3506,2081
3507,1360
3508,1424
3509,2193
3510,2203
3511,1471
3512,1350
3513,2089
3514,2288
3515,1588
3516,1300
3517,1973
3518,2357
3519,1713
3520,1271
3521,1840
3522,2377
3523,1845
3524,1273
3525,1690
3526,2351
3527,1968
3528,1302
3529,1535
3530,2278
3531,2070
3532,1353
3533,1429
3534,2212
3535,2205
3536,1455
3537,1349
3538,2105
3539,2285
3540,1535
3541,1263
3542,1955
3543,2335
3544,1686
3545,1242
3546,1820
3547,2362
3548,1810
3549,1223
3550,1668
3551,2339
3552,1945
3553,1267
3554,1535
3555,2305
3556,2087
3557,1339
3558,1421
3559,2209
3560,2192
3561,1436
3562,1339
3563,2121
3564,2304
3565,1568
3566,1277
3567,1981
3568,2354
3569,1691
3570,1252
3571,1854
3572,2403
3573,1845
3574,1255
3575,1706
3576,2388
3577,1982
3578,1296
3579,1583
3580,2339
3581,2109
3582,1359
3583,1450
3584,2254
3585,2224
3586,1465
3587,1354
3588,2130
3589,2307
3590,1569
3591,1293
3592,2011
3593,2384
3594,1712
3595,1271
3596,1859
3597,2400
3598,1847
3599,1287
3600,1745
3601,2415
3602,1998
3603,1314
3604,1597
3605,2365
3606,2158
3607,1437
3608,1567
3609,2362
3610,2334
3611,1568
3612,1475
3613,2269
3614,2454
3615,1731
3616,1439
3617,2101
3618,2405
3619,1712
3620,1277
3621,1890
3622,2414
3623,1847
3624,1273
3625,1728
3626,2383
3627,1958
3628,1285
3629,1566
3630,2309
3631,2073
3632,1328
3633,1433
3634,2214
3635,2187
3636,1426
3637,1342
3638,2112
3639,2267
3640,1503
3641,1215
3642,1917
3643,2379
3644,1919
3645,1798
3646,2672
3647,3568
3648,2800
3649,2047
3650,2335
3651,2847
3652,2215
3653,1321
3654,1440
3655,2158
3656,1953
3657,1303
3658,1457
3659,2257
3660,2219
3661,1451
3662,1355
3663,2110
3664,2259
3665,1535
3666,1289
3667,1989
3668,2327
3669,1659
3670,1247
3671,1841
3672,2363
3673,1808
3674,1251
3675,1703
3676,2339
3677,1933
3678,1291
3679,1584
3680,2304
3681,2059
3682,1333
3683,1454
3684,2225
3685,2183
3686,1451
3687,1378
3688,2128
3689,2271
3690,1555
3691,1319
3692,2015
3693,2345
3694,1685
3695,1293
3696,1891
3697,2394
3698,1842
3699,1317
3700,1775
3701,2397
3702,1984
3703,1363
3704,1663
3705,2385
3706,2155
3707,1453
3708,1569
3709,2317
3710,2253
3711,1521
3712,1469
3713,2213
3714,2336
3715,1610
3716,1358
3717,2015
3718,2297
3719,1609
3720,1185
3721,1739
3722,2179
3723,1599
3724,1043
3725,1457
3726,2039
3727,1606
3728,961
3729,1238
3730,1935
3731,1673
3732,960
3733,1072
3734,1811
3735,1734
3736,1002
3737,942
3738,1674
3739,1794
3740,1089
3741,859
3742,1532
3743,1840
3744,1190
3745,808
3746,1389
3747,1872
3748,1327
3749,814
3750,1247
3751,1853
3752,1432
3753,815
3754,1098
3755,1799
3756,1535
3757,853
3758,970
3759,1711
3760,1623
3761,908
3762,851
3763,1574
3764,1695
3765,1002
3766,784
3767,1449
3768,1734
3769,1083
3770,706
3771,1282
3772,1745
3773,1191
3774,688
3775,1131
3776,1716
3777,1281
3778,669
3779,944
3780,1632
3781,1381
3782,720
3783,843
3784,1563
3785,1474
3786,782
3787,719
3788,1414
3789,1520
3790,842
3791,638
3792,1294
3793,1584
3794,942
3795,590
3796,1143
3797,1585
3798,1042
3799,579
3800,1021
3801,1596
3802,1161
3803,582
3804,866
3805,1521
3806,1265
3807,621
3808,746
3809,1445
3810,1360
3811,688
3812,656
3813,1347
3814,1449
3815,781
3816,592
3817,1235
3818,1515
3819,885
3820,531
3821,1082
3822,1508
3823,967
3824,502
3825,945
3826,1505
3827,1094
3828,530
3829,834
3830,1502
3831,1239
3832,605
3833,745
3834,1438
3835,1339
3836,671
3837,644
3838,1344
3839,1438
3840,775
3841,593
3842,1254
3843,1520
3844,899
3845,569
3846,1127
3847,1571
3848,1035
3849,571
3850,1010
3851,1589
3852,1166
3853,599
3854,906
3855,1561
3856,1308
3857,717
3858,895
3859,1627
3860,1535
3861,871
3862,849
3863,1557
3864,1638
3865,976
3866,834
3867,1505
3868,1731
3869,1055
3870,688
3871,1247
3872,1665
3873,1136
3874,691
3875,1137
3876,1679
3877,1239
3878,688
3879,998
3880,1646
3881,1365
3882,739
3883,899
3884,1603
3885,1490
3886,833
3887,834
3888,1535
3889,1623
3890,957
3891,782
3892,1418
3893,1652
3894,1104
3895,957
3896,1814
3897,2518
3898,2203
3899,1825
3900,2174
3901,2543
3902,1985
3903,1232
3904,1308
3905,1751
3906,1384
3907,791
3908,1053
3909,1834
3910,1761
3911,1110
3912,1113
3913,1796
3914,1855
3915,1206
3916,1067
3917,1725
3918,1949
3919,1331
3920,1040
3921,1630
3922,2031
3923,1481
3924,1058
3925,1535
3926,2079
3927,1639
3928,1107
3929,1461
3930,2097
3931,1801
3932,1194
3933,1392
3934,2093
3935,1968
3936,1311
3937,1335
3938,2042
3939,2101
3940,1456
3941,1332
3942,1996
3943,2231
3944,1623
3945,1344
3946,1947
3947,2351
3948,1810
3949,1395
3950,1883
3951,2415
3952,1987
3953,1463
3954,1814
3955,2448
3956,2178
3957,1595
3958,1803
3959,2485
3960,2361
3961,1712
3962,1742
3963,2438
3964,2490
3965,1827
3966,1683
3967,2339
3968,2549
3969,1905
3970,1590
3971,2148
3972,2503
3973,1925
3974,1471
3975,1928
3976,2423
3977,1947
3978,1404
3979,1737
3980,2330
3981,2011
3982,1392
3983,1584
3984,2251
3985,2105
3986,1453
3987,1491
3988,2183
3989,2225
3990,1574
3991,1455
3992,2131
3993,2343
3994,1711
3995,1425
3996,2030
3997,2411
3998,1861
3999,1456
4000,1951
4001,2467
4002,2015
4003,1490
4004,1854
4005,2469
4006,2169
4007,1574
4008,1777
4009,2461
4010,2307
4011,1655
4012,1686
4013,2402
4014,2435
4015,1774
4016,1647
4017,2309
4018,2516
4019,1886
4020,1610
4021,2205
4022,2581
4023,2013
4024,1605
4025,2105
4026,2626
4027,2161
4028,1632
4029,1990
4030,2611
4031,2293
4032,1683
4033,1893
4034,2559
4035,2409
4036,1754
4037,1799
4038,2497
4039,2523
4040,1866
4041,1744
4042,2403
4043,2606
4044,1963
4045,1701
4046,2304
4047,2674
4048,2112
4049,1705
4050,2210
4051,2716
4052,2245
4053,1728
4054,2096
4055,2711
4056,2378
4057,1772
4058,1975
4059,2654
4060,2491
4061,1847
4062,1904
4063,2608
4064,2629
4065,1958
4066,1851
4067,2517
4068,2713
4069,2073
4070,1801
4071,2409
4072,2788
4073,2205
4074,1795
4075,2302
4076,2826
4077,2337
4078,1814
4079,2192
4080,2819
4081,2478
4082,1870
4083,2089
4084,2766
4085,2593
4086,1937
4087,1987
4088,2687
4089,2701
4090,2029
4091,1917
4092,2597
4093,2803
4094,2151
4095,1881
4096,2487
4097,2859
4098,2261
4099,1862
4100,2377
4101,2896
4102,2397
4103,1877
4104,2263
4105,2896
4106,2533
4107,1936
4108,2192
4109,2910
4110,2752
4111,2102
4112,2153
4113,2854
4114,2866
4115,2191
4116,2085
4117,2787
4118,3008
4119,2288
4120,1968
4121,2539
4122,2895
4123,2301
4124,1904
4125,2410
4126,2917
4127,2407
4128,1877
4129,2247
4130,2862
4131,2499
4132,1904
4133,2135
4134,2825
4135,2622
4136,1953
4137,2032
4138,2762
4139,2755
4140,2063
4141,1941
4142,2608
4143,2752
4144,2094
4145,1925
4146,2745
4147,3598
4148,3123
4149,2834
4150,3568
4151,4095
4152,3147
4153,2416
4154,2593
4155,2982
4156,2419
4157,1767
4158,2068
4159,2835
4160,2702
4161,2062
4162,2146
4163,2864
4164,2822
4165,2112
4166,2014
4167,2718
4168,2897
4169,2214
4170,1957
4171,2601
4172,2966
4173,2333
4174,1936
4175,2474
4176,3004
4177,2466
4178,1950
4179,2349
4180,2996
4181,2606
4182,1989
4183,2243
4184,2960
4185,2738
4186,2064
4187,2153
4188,2891
4189,2864
4190,2160
4191,2074
4192,2790
4193,2973
4194,2281
4195,2041
4196,2694
4197,3071
4198,2415
4199,2018
4200,2559
4201,3151
4202,2559
4203,2064
4204,2479
4205,3173
4206,2733
4207,2121
4208,2389
4209,3175
4210,2889
4211,2192
4212,2303
4213,3095
4214,3038
4215,2283
4216,2199
4217,2935
4218,3107
4219,2330
4220,2067
4221,2704
4222,3038
4223,2320
4224,1891
4225,2424
4226,2908
4227,2319
4228,1770
4229,2189
4230,2802
4231,2363
4232,1714
4233,1978
4234,2687
4235,2446
4236,1765
4237,1872
4238,2613
4239,2545
4240,1818
4241,1743
4242,2480
4243,2646
4244,1936
4245,1681
4246,2355
4247,2699
4248,2032
4249,1621
4250,2213
4251,2727
4252,2161
4253,1637
4254,2102
4255,2755
4256,2324
4257,1676
4258,1952
4259,2685
4260,2430
4261,1719
4262,1840
4263,2615
4264,2554
4265,1797
4266,1709
4267,2470
4268,2638
4269,1904
4270,1643
4271,2341
4272,2687
4273,1997
4274,1595
4275,2199
4276,2716
4277,2128
4278,1567
4279,2023
4280,2671
4281,2224
4282,1565
4283,1873
4284,2618
4285,2349
4286,1625
4287,1749
4288,2518
4289,2449
4290,1692
4291,1627
4292,2397
4293,2529
4294,1787
4295,1535
4296,2250
4297,2589
4298,1901
4299,1488
4300,2097
4301,2602
4302,2004
4303,1456
4304,1935
4305,2586
4306,2129
4307,1456
4308,1765
4309,2502
4310,2245
4311,1518
4312,1664
4313,2442
4314,2358
4315,1587
4316,1527
4317,2320
4318,2442
4319,1695
4320,1466
4321,2206
4322,2519
4323,1809
4324,1404
4325,2037
4326,2553
4327,1950
4328,1409
4329,1903
4330,2529
4331,2067
4332,1411
4333,1765
4334,2493
4335,2197
4336,1473
4337,1642
4338,2417
4339,2309
4340,1557
4341,1523
4342,2309
4343,2398
4344,1635
4345,1421
4346,2170
4347,2469
4348,1762
4349,1383
4350,2033
4351,2496
4352,1873
4353,1347
4354,1879
4355,2515
4356,2034
4357,1409
4358,1805
4359,2559
4360,2262
4361,1515
4362,1680
4363,2480
4364,2363
4365,1594
4366,1603
4367,2416
4368,2468
4369,1658
4370,1409
4371,2155
4372,2437
4373,1712
4374,1332
4375,1997
4376,2453
4377,1808
4378,1271
4379,1807
4380,2429
4381,1918
4382,1259
4383,1631
4384,2371
4385,2037
4386,1303
4387,1497
4388,2317
4389,2183
4390,1381
4391,1361
4392,2160
4393,2213
4394,1473
4395,1447
4396,2495
4397,3179
4398,2559
4399,2238
4400,2819
4401,3195
4402,2309
4403,1583
4404,1930
4405,2384
4406,1775
4407,1114
4408,1557
4409,2369
4410,2059
4411,1325
4412,1535
4413,2346
4414,2185
4415,1375
4416,1374
4417,2214
4418,2276
4419,1469
4420,1278
4421,2090
4422,2371
4423,1611
4424,1242
4425,1942
4426,2416
4427,1749
4428,1215
4429,1787
4430,2427
4431,1895
4432,1228
4433,1648
4434,2417
4435,2070
4436,1303
4437,1506
4438,2338
4439,2198
4440,1409
4441,1418
4442,2259
4443,2320
4444,1520
4445,1349
4446,2164
4447,2453
4448,1695
4449,1326
4450,2033
4451,2511
4452,1840
4453,1323
4454,1905
4455,2544
4456,2009
4457,1362
4458,1792
4459,2557
4460,2192
4461,1438
4462,1661
4463,2491
4464,2341
4465,1533
4466,1535
4467,2372
4468,2410
4469,1575
4470,1360
4471,2131
4472,2370
4473,1583
4474,1191
4475,1879
4476,2311
4477,1612
4478,1073
4479,1639
4480,2257
4481,1707
4482,1047
4483,1455
4484,2199
4485,1818
4486,1068
4487,1292
4488,2117
4489,1936
4490,1147
4491,1181
4492,2019
4493,2067
4494,1259
4495,1078
4496,1867
4497,2129
4498,1389
4499,1053
4500,1779
4501,2235
4502,1567
4503,1059
4504,1642
4505,2255
4506,1717
4507,1078
4508,1488
4509,2231
4510,1869
4511,1141
4512,1369
4513,2175
4514,1981
4515,1201
4516,1257
4517,2091
4518,2112
4519,1311
4520,1153
4521,1959
4522,2209
4523,1455
4524,1109
4525,1817
4526,2244
4527,1569
4528,1073
4529,1666
4530,2263
4531,1712
4532,1078
4533,1511
4534,2241
4535,1843
4536,1123
4537,1371
4538,2190
4539,1997
4540,1221
4541,1258
4542,2081
4543,2096
4544,1297
4545,1154
4546,1938
4547,2175
4548,1423
4549,1104
4550,1813
4551,2235
4552,1568
4553,1072
4554,1666
4555,2258
4556,1712
4557,1099
4558,1533
4559,2261
4560,1872
4561,1148
4562,1398
4563,2202
4564,1991
4565,1221
4566,1286
4567,2110
4568,2111
4569,1326
4570,1203
4571,2005
4572,2219
4573,1457
4574,1150
4575,1867
4576,2270
4577,1591
4578,1125
4579,1727
4580,2299
4581,1743
4582,1140
4583,1591
4584,2288
4585,1893
4586,1194
4587,1464
4588,2262
4589,2035
4590,1262
4591,1332
4592,2155
4593,2149
4594,1370
4595,1261
4596,2055
4597,2249
4598,1491
4599,1197
4600,1919
4601,2320
4602,1664
4603,1237
4604,1866
4605,2443
4606,1885
4607,1285
4608,1729
4609,2414
4610,2015
4611,1343
4612,1641
4613,2413
4614,2146
4615,1331
4616,1371
4617,2176
4618,2170
4619,1401
4620,1291
4621,2065
4622,2230
4623,1469
4624,1177
4625,1894
4626,2263
4627,1584
4628,1138
4629,1735
4630,2287
4631,1719
4632,1136
4633,1601
4634,2288
4635,1873
4636,1173
4637,1431
4638,2176
4639,1967
4640,1346
4641,1682
4642,2794
4643,3088
4644,2410
4645,2269
4646,2891
4647,2917
4648,1963
4649,1430
4650,1913
4651,2159
4652,1482
4653,1136
4654,1819
4655,2402
4656,1846
4657,1282
4658,1735
4659,2386
4660,1967
4661,1300
4662,1597
4663,2339
4664,2096
4665,1358
4666,1475
4667,2263
4668,2211
4669,1456
4670,1395
4671,2192
4672,2345
4673,1599
4674,1343
4675,2045
4676,2393
4677,1727
4678,1315
4679,1937
4680,2463
4681,1895
4682,1346
4683,1822
4684,2473
4685,2045
4686,1403
4687,1717
4688,2453
4689,2195
4690,1474
4691,1619
4692,2409
4693,2349
4694,1597
4695,1535
4696,2325
4697,2480
4698,1757
4699,1525
4700,2256
4701,2597
4702,1922
4703,1524
4704,2160
4705,2671
4706,2091
4707,1535
4708,2032
4709,2687
4710,2231
4711,1573
4712,1885
4713,2609
4714,2315
4715,1577
4716,1681
4717,2423
4718,2308
4719,1520
4720,1449
4721,2194
4722,2281
4723,1507
4724,1271
4725,1981
4726,2285
4727,1584
4728,1200
4729,1829
4730,2283
4731,1680
4732,1157
4733,1654
4734,2277
4735,1823
4736,1193
4737,1511
4738,2245
4739,1968
4740,1259
4741,1396
4742,2176
4743,2083
4744,1335
4745,1317
4746,2109
4747,2214
4748,1458
4749,1258
4750,1983
4751,2281
4752,1590
4753,1222
4754,1870
4755,2342
4756,1731
4757,1210
4758,1723
4759,2341
4760,1873
4761,1241
4762,1599
4763,2313
4764,2001
4765,1293
4766,1455
4767,2221
4768,2103
4769,1353
4770,1341
4771,2128
4772,2207
4773,1455
4774,1259
4775,1997
4776,2278
4777,1583
4778,1221
4779,1861
4780,2309
4781,1709
4782,1205
4783,1712
4784,2299
4785,1823
4786,1215
4787,1584
4788,2292
4789,1975
4790,1264
4791,1455
4792,2224
4793,2095
4794,1349
4795,1349
4796,2124
4797,2193
4798,1450
4799,1284
4800,2031
4801,2291
4802,1593
4803,1254
4804,1899
4805,2325
4806,1712
4807,1233
4808,1770
4809,2355
4810,1869
4811,1264
4812,1643
4813,2338
4814,2002
4815,1312
4816,1510
4817,2278
4818,2127
4819,1393
4820,1409
4821,2178
4822,2229
4823,1503
4824,1347
4825,2083
4826,2311
4827,1614
4828,1285
4829,1949
4830,2369
4831,1748
4832,1269
4833,1808
4834,2377
4835,1872
4836,1281
4837,1679
4838,2357
4839,2014
4840,1343
4841,1574
4842,2323
4843,2155
4844,1418
4845,1450
4846,2231
4847,2288
4848,1589
4849,1469
4850,2224
4851,2444
4852,1729
4853,1405
4854,2089
4855,2494
4856,1895
4857,1457
4858,1985
4859,2489
4860,1920
4861,1310
4862,1713
4863,2395
4864,2023
4865,1328
4866,1565
4867,2320
4868,2130
4869,1389
4870,1441
4871,2219
4872,2223
4873,1471
4874,1342
4875,2108
4876,2315
4877,1605
4878,1307
4879,1983
4880,2365
4881,1695
4882,1210
4883,1754
4884,2368
4885,1994
4886,1675
4887,2395
4888,3499
4889,3089
4890,2256
4891,2317
4892,2981
4893,2555
4894,1565
4895,1403
4896,2092
4897,2102
4898,1424
4899,1387
4900,2202
4901,2413
4902,1680
4903,1378
4904,2061
4905,2423
4906,1763
4907,1312
4908,1902
4909,2451
4910,1904
4911,1327
4912,1778
4913,2459
4914,2060
4915,1381
4916,1656
4917,2409
4918,2189
4919,1449
4920,1535
4921,2336
4922,2323
4923,1573
4924,1463
4925,2238
4926,2416
4927,1696
4928,1425
4929,2139
4930,2498
4931,1830
4932,1408
4933,2021
4934,2554
4935,1997
4936,1444
4937,1905
4938,2559
4939,2156
4940,1495
4941,1806
4942,2551
4943,2334
4944,1623
4945,1742
4946,2531
4947,2499
4948,1760
4949,1680
4950,2450
4951,2613
4952,1871
4953,1611
4954,2314
4955,2673
4956,2001
4957,1590
4958,2192
4959,2679
4960,2067
4961,1488
4962,1951
4963,2559
4964,2099
4965,1402
4966,1687
4967,2403
4968,2118
4969,1363
4970,1488
4971,2262
4972,2175
4973,1393
4974,1339
4975,2126
4976,2246
4977,1486
4978,1251
4979,1977
4980,2302
4981,1616
4982,1215
4983,1856
4984,2358
4985,1759
4986,1223
4987,1742
4988,2375
4989,1902
4990,1245
4991,1604
4992,2349
4993,2047
4994,1314
4995,1491
4996,2295
4997,2183
4998,1408
4999,1381
5000,2187
5001,2283
5002,1517
5003,1307
5004,2064
5005,2361
5006,1647
5007,1262
5008,1923
5009,2405
5010,1776
5011,1235
5012,1759
5013,2381
5014,1886
5015,1241
5016,1611
5017,2323
5018,2002
5019,1285
5020,1472
5021,2254
5022,2106
5023,1348
5024,1360
5025,2159
5026,2209
5027,1431
5028,1250
5029,2021
5030,2305
5031,1569
5032,1196
5033,1869
5034,2321
5035,1680
5036,1165
5037,1707
5038,2314
5039,1798
5040,1169
5041,1535
5042,2271
5043,1926
5044,1211
5045,1421
5046,2204
5047,2027
5048,1251
5049,1282
5050,2089
5051,2127
5052,1361
5053,1209
5054,1954
5055,2183
5056,1453
5057,1110
5058,1781
5059,2192
5060,1558
5061,1084
5062,1637
5063,2202
5064,1679
5065,1073
5066,1456
5067,2143
5068,1786
5069,1110
5070,1329
5071,2080
5072,1881
5073,1149
5074,1189
5075,1946
5076,1968
5077,1234
5078,1081
5079,1796
5080,1994
5081,1291
5082,999
5083,1677
5084,2082
5085,1485
5086,1057
5087,1580
5088,2099
5089,1589
5090,1023
5091,1423
5092,2084
5093,1749
5094,1101
5095,1275
5096,1924
5097,1698
5098,979
5099,1023
5100,1748
5101,1735
5102,1008
5103,881
5104,1587
5105,1773
5106,1081
5107,786
5108,1407
5109,1744
5110,1141
5111,715
5112,1232
5113,1733
5114,1235
5115,694
5116,1072
5117,1678
5118,1290
5119,650
5120,869
5121,1653
5122,1675
5123,1316
5124,1673
5125,2502
5126,2463
5127,1647
5128,1407
5129,1894
5130,1810
5131,928
5132,526
5133,1062
5134,1435
5135,921
5136,592
5137,1136
5138,1643
5139,1152
5140,622
5141,960
5142,1518
5143,1167
5144,585
5145,807
5146,1447
5147,1243
5148,620
5149,697
5150,1360
5151,1331
5152,669
5153,560
5154,1185
5155,1334
5156,722
5157,506
5158,1109
5159,1410
5160,850
5161,542
5162,1011
5163,1403
5164,938
5165,487
5166,849
5167,1378
5168,1047
5169,557
5170,786
5171,1350
5172,1134
5173,553
5174,644
5175,1281
5176,1251
5177,654
5178,587
5179,1218
5180,1360
5181,787
5182,594
5183,1159
5184,1427
5185,924
5186,624
5187,1091
5188,1481
5189,1003
5190,575
5191,939
5192,1456
5193,1102
5194,579
5195,782
5196,1343
5197,1106
5198,511
5199,576
5200,1168
5201,1091
5202,478
5203,381
5204,925
5205,1010
5206,417
5207,225
5208,784
5209,1068
5210,511
5211,178
5212,658
5213,1106
5214,641
5215,155
5216,528
5217,1153
5218,836
5219,230
5220,430
5221,1184
5222,1021
5223,251
5224,211
5225,912
5226,977
5227,368
5228,268
5229,955
5230,1155
5231,529
5232,279
5233,904
5234,1329
5235,739
5236,256
5237,715
5238,1170
5239,718
5240,282
5241,688
5242,1290
5243,908
5244,322
5245,592
5246,1325
5247,1140
5248,403
5249,403
5250,1286
5251,1449
5252,603
5253,311
5254,1073
5255,1369
5256,679
5257,349
5258,1061
5259,1511
5260,854
5261,347
5262,913
5263,1564
5264,1040
5265,442
5266,903
5267,1661
5268,1226
5269,448
5270,693
5271,1579
5272,1426
5273,620
5274,627
5275,1471
5276,1528
5277,786
5278,653
5279,1442
5280,1655
5281,896
5282,592
5283,1328
5284,1771
5285,1107
5286,604
5287,1187
5288,1786
5289,1264
5290,675
5291,1114
5292,1835
5293,1461
5294,773
5295,1037
5296,1828
5297,1631
5298,883
5299,962
5300,1802
5301,1814
5302,1064
5303,913
5304,1710
5305,1915
5306,1183
5307,906
5308,1655
5309,2027
5310,1381
5311,945
5312,1535
5313,2077
5314,1488
5315,901
5316,1421
5317,2177
5318,1781
5319,1040
5320,1311
5321,2178
5322,2022
5323,1281
5324,1374
5325,2171
5326,2109
5327,1296
5328,1190
5329,2054
5330,2309
5331,1589
5332,1260
5333,1935
5334,2238
5335,1562
5336,1211
5337,1841
5338,2283
5339,1679
5340,1163
5341,1695
5342,2382
5343,1957
5344,1317
5345,1562
5346,2315
5347,2141
5348,1408
5349,1439
5350,2243
5351,2325
5352,1664
5353,1415
5354,2036
5355,2170
5356,1447
5357,1255
5358,2183
5359,2886
5360,2545
5361,2330
5362,2999
5363,3559
5364,2665
5365,1945
5366,2201
5367,2735
5368,2231
5369,1451
5370,1629
5371,2377
5372,2267
5373,1676
5374,1838
5375,2640
5376,2559
5377,1798
5378,1684
5379,2416
5380,2521
5381,1808
5382,1607
5383,2355
5384,2743
5385,2112
5386,1681
5387,2266
5388,2779
5389,2254
5390,1788
5391,2245
5392,2819
5393,2395
5394,1888
5395,2269
5396,2896
5397,2501
5398,1773
5399,1907
5400,2704
5401,2689
5402,2025
5403,1998
5404,2741
5405,2878
5406,2179
5407,1969
5408,2677
5409,3055
5410,2397
5411,2019
5412,2624
5413,3221
5414,2654
5415,2123
5416,2508
5417,3167
5418,2742
5419,2183
5420,2490
5421,3285
5422,2970
5423,2303
5424,2485
5425,3341
5426,3130
5427,2347
5428,2320
5429,3136
5430,3291
5431,2495
5432,2262
5433,2950
5434,3337
5435,2557
5436,2106
5437,2588
5438,3043
5439,2480
5440,2010
5441,2464
5442,3091
5443,2624
5444,2013
5445,2345
5446,3071
5447,2711
5448,2015
5449,2135
5450,2843
5451,2782
5452,2145
5453,2111
5454,2804
5455,2911
5456,2256
5457,2090
5458,2766
5459,3097
5460,2418
5461,2058
5462,2615
5463,3122
5464,2608
5465,2239
5466,2683
5467,3113
5468,2464
5469,1874
5470,2234
5471,2941
5472,2678
5473,2074
5474,2241
5475,2995
5476,2949
5477,2291
5478,2236
5479,2876
5480,2928
5481,2279
5482,2135
5483,2727
5484,2938
5485,2441
5486,2307
5487,2827
5488,3091
5489,2459
5490,2021
5491,2389
5492,2807
5493,2431
5494,2021
5495,2321
5496,2896
5497,2619
5498,2046
5499,2194
5500,2804
5501,2800
5502,2318
5503,2185
5504,2583
5505,2559
5506,2147
5507,2143
5508,2713
5509,2805
5510,2170
5511,1894
5512,2418
5513,2704
5514,2224
5515,1927
5516,2351
5517,2714
5518,2291
5519,1902
5520,2288
5521,2831
5522,2474
5523,1920
5524,2037
5525,2555
5526,2463
5527,2029
5528,2114
5529,2558
5530,2401
5531,1840
5532,1801
5533,2402
5534,2645
5535,2162
5536,1833
5537,2249
5538,2557
5539,2160
5540,1739
5541,2032
5542,2416
5543,2093
5544,1724
5545,2091
5546,2623
5547,2320
5548,1761
5549,1881
5550,2426
5551,2293
5552,1824
5553,1904
5554,2435
5555,2367
5556,1776
5557,1728
5558,2372
5559,2559
5560,2030
5561,1823
5562,2399
5563,2545
5564,1814
5565,1431
5566,2082
5567,2624
5568,2079
5569,1493
5570,1729
5571,2143
5572,1805
5573,1346
5574,1603
5575,2225
5576,2139
5577,1586
5578,1595
5579,2115
5580,2079
5581,1570
5582,1530
5583,2101
5584,2204
5585,1665
5586,1459
5587,1965
5588,2219
5589,1804
5590,1763
5591,2544
5592,3303
5593,2822
5594,2224
5595,2399
5596,2691
5597,2176
5598,1481
5599,1535
5600,2015
5601,1830
5602,1374
5603,1535
5604,2191
5605,2137
5606,1563
5607,1505
5608,2083
5609,2153
5610,1599
5611,1418
5612,1969
5613,2214
5614,1705
5615,1408
5616,1893
5617,2286
5618,1847
5619,1429
5620,1803
5621,2288
5622,1922
5623,1413
5624,1687
5625,2286
5626,2031
5627,1367
5628,1469
5629,2226
5630,2207
5631,1520
5632,1445
5633,2186
5634,2311
5635,1613
5636,1383
5637,2094
5638,2403
5639,1758
5640,1354
5641,1969
5642,2498
5643,1960
5644,1405
5645,1885
5646,2559
5647,2159
5648,1367
5649,1596
5650,2401
5651,2240
5652,1584
5653,1669
5654,2285
5655,2099
5656,1469
5657,1535
5658,2303
5659,2347
5660,1683
5661,1524
5662,2188
5663,2412
5664,1767
5665,1424
5666,2019
5667,2421
5668,1834
5669,1328
5670,1815
5671,2416
5672,1973
5673,1305
5674,1523
5675,2090
5676,1808
5677,1223
5678,1427
5679,2186
5680,2047
5681,1299
5682,1303
5683,2088
5684,2099
5685,1368
5686,1232
5687,2002
5688,2295
5689,1735
5690,1430
5691,1969
5692,2370
5693,1891
5694,1451
5695,1834
5696,2244
5697,1691
5698,1196
5699,1700
5700,2419
5701,2118
5702,1535
5703,1712
5704,2322
5705,2146
5706,1559
5707,1643
5708,2341
5709,2328
5710,1639
5711,1627
5712,2448
5713,2528
5714,1617
5715,1267
5716,2021
5717,2523
5718,2029
5719,1616
5720,2083
5721,2484
5722,1910
5723,1379
5724,1895
5725,2608
5726,2199
5727,1535
5728,1872
5729,2634
5730,2339
5731,1613
5732,1731
5733,2512
5734,2436
5735,1626
5736,1518
5737,2335
5738,2559
5739,1871
5740,1583
5741,2299
5742,2710
5743,2063
5744,1535
5745,2078
5746,2613
5747,2110
5748,1586
5749,2061
5750,2769
5751,2390
5752,1677
5753,1906
5754,2751
5755,2553
5756,1679
5757,1627
5758,2384
5759,2429
5760,1792
5761,1695
5762,2396
5763,2534
5764,1882
5765,1703
5766,2431
5767,2785
5768,2135
5769,1742
5770,2335
5771,2845
5772,2288
5773,1787
5774,2247
5775,2874
5776,2403
5777,1743
5778,2010
5779,2707
5780,2431
5781,1755
5782,1898
5783,2659
5784,2559
5785,1838
5786,1791
5787,2546
5788,2672
5789,1904
5790,1667
5791,2411
5792,2745
5793,2032
5794,1645
5795,2308
5796,2815
5797,2159
5798,1598
5799,2105
5800,2752
5801,2287
5802,1745
5803,2346
5804,3691
5805,3578
5806,2703
5807,2794
5808,3760
5809,3359
5810,2245
5811,1989
5812,2624
5813,2585
5814,1755
5815,1585
5816,2407
5817,2785
5818,2094
5819,1700
5820,2338
5821,2814
5822,2173
5823,1650
5824,2179
5825,2838
5826,2349
5827,1664
5828,1987
5829,2745
5830,2447
5831,1735
5832,1895
5833,2658
5834,2485
5835,1714
5836,1727
5837,2553
5838,2640
5839,1873
5840,1665
5841,2417
5842,2711
5843,1997
5844,1646
5845,2317
5846,2778
5847,2131
5848,1629
5849,2164
5850,2798
5851,2289
5852,1648
5853,2025
5854,2759
5855,2404
5856,1707
5857,1923
5858,2715
5859,2537
5860,1795
5861,1849
5862,2653
5863,2674
5864,1911
5865,1774
5866,2527
5867,2769
5868,2055
5869,1759
5870,2480
5871,2887
5872,2146
5873,1623
5874,2201
5875,2818
5876,2269
5877,1616
5878,1968
5879,2633
5880,2224
5881,1506
5882,1726
5883,2498
5884,2302
5885,1495
5886,1499
5887,2305
5888,2338
5889,1562
5890,1399
5891,2171
5892,2397
5893,1651
5894,1317
5895,2034
5896,2474
5897,1793
5898,1296
5899,1894
5900,2480
5901,1939
5902,1327
5903,1749
5904,2464
5905,2062
5906,1329
5907,1590
5908,2425
5909,2245
5910,1472
5911,1534
5912,2374
5913,2363
5914,1563
5915,1424
5916,2240
5917,2471
5918,1721
5919,1387
5920,2126
5921,2541
5922,1840
5923,1341
5924,1943
5925,2528
5926,1972
5927,1378
5928,1856
5929,2588
5930,2159
5931,1429
5932,1711
5933,2531
5934,2278
5935,1456
5936,1530
5937,2401
5938,2405
5939,1622
5940,1498
5941,2311
5942,2512
5943,1747
5944,1431
5945,2160
5946,2544
5947,1858
5948,1405
5949,2030
5950,2612
5951,2031
5952,1424
5953,1873
5954,2559
5955,2160
5956,1456
5957,1739
5958,2530
5959,2307
5960,1535
5961,1630
5962,2445
5963,2427
5964,1664
5965,1563
5966,2359
5967,2533
5968,1776
5969,1474
5970,2208
5971,2599
5972,1904
5973,1454
5974,2076
5975,2627
5976,2059
5977,1483
5978,1951
5979,2631
5980,2182
5981,1472
5982,1775
5983,2559
5984,2357
5985,1641
5986,1776
5987,2623
5988,2559
5989,1755
5990,1652
5991,2462
5992,2660
5993,1910
5994,1654
5995,2396
5996,2739
5997,1994
5998,1517
5999,2127
6000,2656
6001,2083
6002,1526
6003,1996
6004,2647
6005,2204
6006,1527
6007,1845
6008,2559
6009,2288
6010,1585
6011,1743
6012,2527
6013,2425
6014,1670
6015,1648
6016,2448
6017,2559
6018,1827
6019,1616
6020,2314
6021,2586
6022,1946
6023,1735
6024,2637
6025,3655
6026,3066
6027,2549
6028,2959
6029,3644
6030,2845
6031,1978
6032,2064
6033,2608
6034,2227
6035,1511
6036,1727
6037,2620
6038,2559
6039,1808
6040,1733
6041,2512
6042,2639
6043,1872
6044,1639
6045,2385
6046,2719
6047,2002
6048,1590
6049,2230
6050,2737
6051,2116
6052,1559
6053,2078
6054,2747
6055,2278
6056,1602
6057,1936
6058,2706
6059,2398
6060,1645
6061,1795
6062,2624
6063,2517
6064,1741
6065,1712
6066,2544
6067,2654
6068,1855
6069,1616
6070,2394
6071,2733
6072,1991
6073,1602
6074,2287
6075,2802
6076,2153
6077,1613
6078,2169
6079,2853
6080,2348
6081,1679
6082,2035
6083,2813
6084,2463
6085,1707
6086,1899
6087,2755
6088,2624
6089,1829
6090,1823
6091,2669
6092,2752
6093,1952
6094,1746
6095,2502
6096,2782
6097,1996
6098,1577
6099,2234
6100,2701
6101,2019
6102,1433
6103,1936
6104,2557
6105,2038
6106,1359
6107,1717
6108,2448
6109,2105
6110,1353
6111,1535
6112,2352
6113,2212
6114,1419
6115,1417
6116,2238
6117,2288
6118,1493
6119,1301
6120,2115
6121,2394
6122,1646
6123,1257
6124,1941
6125,2426
6126,1776
6127,1248
6128,1811
6129,2448
6130,1929
6131,1280
6132,1689
6133,2439
6134,2094
6135,1349
6136,1577
6137,2390
6138,2231
6139,1434
6140,1443
6141,2269
6142,2320
6143,1535
6144,1367
6145,2169
6146,2416
6147,1649
6148,1291
6149,2003
6150,2464
6151,1808
6152,1280
6153,1861
6154,2479
6155,1921
6156,1257
6157,1661
6158,2416
6159,2076
6160,1337
6161,1535
6162,2327
6163,2160
6164,1381
6165,1399
6166,2224
6167,2266
6168,1491
6169,1330
6170,2128
6171,2365
6172,1623
6173,1295
6174,2001
6175,2416
6176,1719
6177,1205
6178,1787
6179,2389
6180,1859
6181,1243
6182,1680
6183,2398
6184,1999
6185,1279
6186,1533
6187,2346
6188,2151
6189,1363
6190,1413
6191,2241
6192,2247
6193,1451
6194,1297
6195,2096
6196,2309
6197,1557
6198,1241
6199,1968
6200,2381
6201,1703
6202,1205
6203,1796
6204,2372
6205,1827
6206,1232
6207,1675
6208,2355
6209,1952
6210,1291
6211,1579
6212,2287
6213,1968
6214,1218
6215,1361
6216,2248
6217,2288
6218,1577
6219,1434
6220,2131
6221,2319
6222,1682
6223,1398
6224,2211
6225,2672
6226,1767
6227,995
6228,1514
6229,2150
6230,1715
6231,1271
6232,1669
6233,2192
6234,1727
6235,1079
6236,1417
6237,2289
6238,2160
6239,1424
6240,1407
6241,2118
6242,2063
6243,1252
6244,1134
6245,1973
6246,2167
6247,1391
6248,1037
6249,1725
6250,2112
6251,1453
6252,1104
6253,1910
6254,2735
6255,2445
6256,2090
6257,2621
6258,3323
6259,2624
6260,1829
6261,1968
6262,2533
6263,2064
6264,1152
6265,1293
6266,2192
6267,2158
6268,1350
6269,1280
6270,2125
6271,2288
6272,1520
6273,1249
6274,1997
6275,2367
6276,1678
6277,1239
6278,1862
6279,2403
6280,1833
6281,1251
6282,1733
6283,2417
6284,1974
6285,1295
6286,1611
6287,2387
6288,2115
6289,1345
6290,1464
6291,2291
6292,2245
6293,1472
6294,1401
6295,2224
6296,2377
6297,1625
6298,1363
6299,2111
6300,2452
6301,1763
6302,1347
6303,1995
6304,2518
6305,1936
6306,1378
6307,1874
6308,2543
6309,2092
6310,1420
6311,1775
6312,2549
6313,2271
6314,1519
6315,1669
6316,2486
6317,2415
6318,1634
6319,1589
6320,2414
6321,2551
6322,1777
6323,1514
6324,2253
6325,2559
6326,1821
6327,1379
6328,2022
6329,2500
6330,1840
6331,1249
6332,1763
6333,2405
6334,1886
6335,1161
6336,1499
6337,2276
6338,1953
6339,1181
6340,1314
6341,2140
6342,2018
6343,1227
6344,1183
6345,2013
6346,2109
6347,1328
6348,1111
6349,1893
6350,2195
6351,1457
6352,1053
6353,1735
6354,2235
6355,1617
6356,1092
6357,1628
6358,2269
6359,1757
6360,1077
6361,1438
6362,2209
6363,1905
6364,1179
6365,1361
6366,2177
6367,2055
6368,1281
6369,1248
6370,2032
6371,2112
6372,1355
6373,1156
6374,1926
6375,2225
6376,1509
6377,1134
6378,1805
6379,2279
6380,1648
6381,1116
6382,1643
6383,2272
6384,1791
6385,1157
6386,1514
6387,2242
6388,1903
6389,1187
6390,1367
6391,2160
6392,2021
6393,1267
6394,1267
6395,2064
6396,2121
6397,1361
6398,1175
6399,1927
6400,2189
6401,1471
6402,1121
6403,1801
6404,2260
6405,1629
6406,1114
6407,1632
6408,2230
6409,1751
6410,1142
6411,1485
6412,2186
6413,1840
6414,1169
6415,1397
6416,2161
6417,1991
6418,1282
6419,1344
6420,2154
6421,2160
6422,1331
6423,1127
6424,1902
6425,2172
6426,1472
6427,1134
6428,1798
6429,2242
6430,1633
6431,1159
6432,1712
6433,2303
6434,1791
6435,1172
6436,1583
6437,2289
6438,1923
6439,1214
6440,1418
6441,2197
6442,2043
6443,1327
6444,1355
6445,2149
6446,2193
6447,1474
6448,1337
6449,2100
6450,2354
6451,1649
6452,1308
6453,1957
6454,2384
6455,1783
6456,1333
6457,1883
6458,2411
6459,1826
6460,1175
6461,1564
6462,2275
6463,1930
6464,1247
6465,1466
6466,2221
6467,2032
6468,1281
6469,1311
6470,2103
6471,2124
6472,1381
6473,1237
6474,2001
6475,2239
6476,1519
6477,1175
6478,1863
6479,2288
6480,1642
6481,1126
6482,1696
6483,2342
6484,1948
6485,1557
6486,2259
6487,3367
6488,3007
6489,2213
6490,2233
6491,2779
6492,2401
6493,1502
6494,1317
6495,1882
6496,1838
6497,1194
6498,1199
6499,2046
6500,2288
6501,1557
6502,1248
6503,1962
6504,2342
6505,1713
6506,1413
6507,2017
6508,2418
6509,1784
6510,1174
6511,1597
6512,2356
6513,2078
6514,1350
6515,1511
6516,2253
6517,2001
6518,1194
6519,1237
6520,2110
6521,2173
6522,1472
6523,1386
6524,2137
6525,2305
6526,1607
6527,1413
6528,2255
6529,2591
6530,1802
6531,1296
6532,1921
6533,2503
6534,1871
6535,1219
6536,1664
6537,2406
6538,2077
6539,1429
6540,1710
6541,2472
6542,2270
6543,1585
6544,1729
6545,2469
6546,2362
6547,1619
6548,1557
6549,2403
6550,2709
6551,2000
6552,1535
6553,2130
6554,2462
6555,1862
6556,1613
6557,2335
6558,2753
6559,1875
6560,1129
6561,1584
6562,2315
6563,1969
6564,1328
6565,1587
6566,2285
6567,2011
6568,1296
6569,1386
6570,2160
6571,2121
6572,1377
6573,1287
6574,2046
6575,2192
6576,1471
6577,1222
6578,1936
6579,2271
6580,1607
6581,1174
6582,1789
6583,2306
6584,1755
6585,1217
6586,1681
6587,2310
6588,1873
6589,1241
6590,1535
6591,2273
6592,2019
6593,1314
6594,1438
6595,2227
6596,2166
6597,1424
6598,1360
6599,2140
6600,2256
6601,1518
6602,1275
6603,1994
6604,2326
6605,1656
6606,1242
6607,1847
6608,2339
6609,1769
6610,1232
6611,1715
6612,2353
6613,1904
6614,1251
6615,1566
6616,2295
6617,2020
6618,1316
6619,1459
6620,2243
6621,2154
6622,1390
6623,1341
6624,2126
6625,2230
6626,1488
6627,1264
6628,1978
6629,2277
6630,1611
6631,1227
6632,1858
6633,2342
6634,1757
6635,1209
6636,1681
6637,2290
6638,1837
6639,1195
6640,1533
6641,2268
6642,1975
6643,1271
6644,1430
6645,2219
6646,2115
6647,1360
6648,1334
6649,2115
6650,2204
6651,1465
6652,1259
6653,1999
6654,2288
6655,1584
6656,1188
6657,1836
6658,2316
6659,1721
6660,1213
6661,1725
6662,2326
6663,1851
6664,1228
6665,1599
6666,2327
6667,2000
6668,1283
6669,1456
6670,2262
6671,2153
6672,1421
6673,1434
6674,2238
6675,2306
6676,1554
6677,1366
6678,2134
6679,2416
6680,1714
6681,1345
6682,1986
6683,2384
6684,1708
6685,1159
6686,1693
6687,2333
6688,1872
6689,1227
6690,1584
6691,2304
6692,1973
6693,1231
6694,1391
6695,2160
6696,2007
6697,1265
6698,1285
6699,2096
6700,2154
6701,1394
6702,1207
6703,1968
6704,2224
6705,1499
6706,1131
6707,1787
6708,2238
6709,1715
6710,1431
6711,2291
6712,3280
6713,2871
6714,2228
6715,2416
6716,2990
6717,2422
6718,1471
6719,1446
6720,2084
6721,1887
6722,1212
6723,1325
6724,2169
6725,2230
6726,1488
6727,1326
6728,2047
6729,2283
6730,1567
6731,1229
6732,1895
6733,2315
6734,1694
6735,1232
6736,1791
6737,2362
6738,1859
6739,1280
6740,1680
6741,2363
6742,2000
6743,1325
6744,1571
6745,2337
6746,2145
6747,1398
6748,1454
6749,2252
6750,2279
6751,1534
6752,1401
6753,2178
6754,2396
6755,1680
6756,1366
6757,2068
6758,2474
6759,1840
6760,1375
6761,1942
6762,2515
6763,1993
6764,1411
6765,1851
6766,2559
6767,2200
6768,1508
6769,1765
6770,2528
6771,2327
6772,1606
6773,1677
6774,2474
6775,2463
6776,1712
6777,1603
6778,2382
6779,2559
6780,1824
6781,1510
6782,2196
6783,2549
6784,1870
6785,1391
6786,1936
6787,2437
6788,1858
6789,1253
6790,1677
6791,2325
6792,1902
6793,1209
6794,1467
6795,2223
6796,1990
6797,1246
6798,1327
6799,2122
6800,2086
6801,1321
6802,1227
6803,2000
6804,2176
6805,1435
6806,1152
6807,1871
6808,2240
6809,1575
6810,1135
6811,1742
6812,2265
6813,1712
6814,1137
6815,1602
6816,2273
6817,1859
6818,1213
6819,1510
6820,2263
6821,2022
6822,1290
6823,1392
6824,2199
6825,2161
6826,1419
6827,1327
6828,2099
6829,2247
6830,1520
6831,1264
6832,1980
6833,2319
6834,1648
6835,1219
6836,1840
6837,2357
6838,1790
6839,1232
6840,1702
6841,2347
6842,1906
6843,1247
6844,1565
6845,2308
6846,2038
6847,1314
6848,1438
6849,2223
6850,2141
6851,1397
6852,1346
6853,2146
6854,2270
6855,1506
6856,1242
6857,1976
6858,2309
6859,1625
6860,1218
6861,1856
6862,2352
6863,1770
6864,1203
6865,1699
6866,2352
6867,1909
6868,1257
6869,1595
6870,2339
6871,2047
6872,1328
6873,1468
6874,2255
6875,2149
6876,1388
6877,1360
6878,2174
6879,2270
6880,1514
6881,1284
6882,2030
6883,2352
6884,1669
6885,1279
6886,1911
6887,2384
6888,1776
6889,1239
6890,1742
6891,2370
6892,1905
6893,1264
6894,1599
6895,2327
6896,2036
6897,1338
6898,1510
6899,2299
6900,2177
6901,1410
6902,1399
6903,2195
6904,2279
6905,1522
6906,1328
6907,2082
6908,2399
6909,1740
6910,1385
6911,2064
6912,2533
6913,1915
6914,1381
6915,1902
6916,2517
6917,2063
6918,1447
6919,1793
6920,2471
6921,2111
6922,1360
6923,1535
6924,2334
6925,2208
6926,1443
6927,1415
6928,2199
6929,2277
6930,1523
6931,1322
6932,2074
6933,2341
6934,1631
6935,1260
6936,1918
6937,2384
6938,1783
6939,1276
6940,1811
6941,2414
6942,1905
6943,1260
6944,1605
6945,2325
6946,2119
6947,1651
6948,2142
6949,3281
6950,3280
6951,2384
6952,2207
6953,2886
6954,2774
6955,1778
6956,1344
6957,1949
6958,2189
6959,1558
6960,1309
6961,2039
6962,2480
6963,1842
6964,1333
6965,1877
6966,2459
6967,1952
6968,1340
6969,1737
6970,2437
6971,2095
6972,1392
6973,1621
6974,2400
6975,2229
6976,1470
6977,1501
6978,2301
6979,2333
6980,1585
6981,1433
6982,2198
6983,2426
6984,1718
6985,1389
6986,2071
6987,2498
6988,1881
6989,1407
6990,1969
6991,2550
6992,2032
6993,1427
6994,1842
6995,2541
6996,2182
6997,1492
6998,1744
6999,2513
7000,2339
7001,1613
7002,1667
7003,2470
7004,2483
7005,1735
7006,1612
7007,2384
7008,2615
7009,1903
7010,1602
7011,2290
7012,2695
7013,2047
7014,1589
7015,2159
7016,2721
7017,2176
7018,1588
7019,1985
7020,2641
7021,2226
7022,1517
7023,1722
7024,2431
7025,2201
7026,1441
7027,1477
7028,2242
7029,2214
7030,1440
7031,1290
7032,2037
7033,2221
7034,1494
7035,1197
7036,1872
7037,2241
7038,1595
7039,1147
7040,1723
7041,2245
7042,1699
7043,1117
7044,1533
7045,2205
7046,1814
7047,1147
7048,1405
7049,2163
7050,1936
7051,1200
7052,1280
7053,2062
7054,2017
7055,1264
7056,1168
7057,1936
7058,2102
7059,1381
7060,1106
7061,1813
7062,2170
7063,1502
7064,1067
7065,1663
7066,2167
7067,1618
7068,1069
7069,1495
7070,2134
7071,1706
7072,1038
7073,1312
7074,2047
7075,1801
7076,1082
7077,1173
7078,1943
7079,1870
7080,1104
7081,1002
7082,1773
7083,1898
7084,1168
7085,917
7086,1621
7087,1934
7088,1258
7089,855
7090,1466
7091,1968
7092,1390
7093,823
7094,1280
7095,1909
7096,1461
7097,815
7098,1106
7099,1840
7100,1553
7101,815
7102,918
7103,1698
7104,1627
7105,890
7106,829
7107,1603
7108,1718
7109,979
7110,733
7111,1425
7112,1731
7113,1054
7114,643
7115,1234
7116,1719
7117,1149
7118,627
7119,1090
7120,1703
7121,1290
7122,683
7123,951
7124,1601
7125,1296
7126,593
7127,720
7128,1479
7129,1395
7130,686
7131,624
7132,1366
7133,1463
7134,739
7135,527
7136,1231
7137,1520
7138,849
7139,463
7140,1063
7141,1517
7142,935
7143,426
7144,880
7145,1478
7146,1039
7147,427
7148,746
7149,1469
7150,1199
7151,529
7152,687
7153,1434
7154,1309
7155,592
7156,575
7157,1329
7158,1430
7159,722
7160,487
7161,1126
7162,1328
7163,660
7164,326
7165,930
7166,1361
7167,767
7168,269
7169,731
7170,1300
7171,839
7172,247
7173,575
7174,1255
7175,944
7176,278
7177,432
7178,1171
7179,1040
7180,341
7181,320
7182,1055
7183,1107
7184,384
7185,208
7186,986
7187,1403
7188,994
7189,971
7190,1823
7191,2271
7192,1535
7193,883
7194,1237
7195,1582
7196,847
7197,91
7198,378
7199,1088
7200,837
7201,256
7202,480
7203,1235
7204,1078
7205,373
7206,399
7207,1156
7208,1195
7209,476
7210,332
7211,1046
7212,1275
7213,594
7214,290
7215,915
7216,1315
7217,703
7218,272
7219,807
7220,1373
7221,896
7222,353
7223,740
7224,1424
7225,1079
7226,435
7227,656
7228,1394
7229,1219
7230,545
7231,595
7232,1362
7233,1379
7234,672
7235,557
7236,1290
7237,1508
7238,839
7239,566
7240,1246
7241,1650
7242,1045
7243,617
7244,1168
7245,1712
7246,1202
7247,681
7248,1115
7249,1781
7250,1419
7251,793
7252,1057
7253,1803
7254,1600
7255,891
7256,959
7257,1721
7258,1714
7259,1008
7260,896
7261,1623
7262,1778
7263,1067
7264,766
7265,1406
7266,1726
7267,1088
7268,665
7269,1218
7270,1735
7271,1193
7272,624
7273,1023
7274,1670
7275,1296
7276,687
7277,945
7278,1680
7279,1456
7280,763
7281,853
7282,1633
7283,1610
7284,906
7285,831
7286,1591
7287,1743
7288,1055
7289,816
7290,1519
7291,1859
7292,1232
7293,847
7294,1449
7295,1955
7296,1420
7297,903
7298,1363
7299,1999
7300,1601
7301,989
7302,1299
7303,2033
7304,1787
7305,1101
7306,1225
7307,2000
7308,1947
7309,1234
7310,1173
7311,1934
7312,2064
7313,1362
7314,1157
7315,1872
7316,2179
7317,1521
7318,1154
7319,1774
7320,2243
7321,1682
7322,1184
7323,1667
7324,2281
7325,1861
7326,1249
7327,1565
7328,2276
7329,2015
7330,1344
7331,1483
7332,2235
7333,2145
7334,1450
7335,1423
7336,2174
7337,2271
7338,1575
7339,1366
7340,2083
7341,2379
7342,1737
7343,1369
7344,1968
7345,2426
7346,1872
7347,1375
7348,1869
7349,2471
7350,2029
7351,1449
7352,1793
7353,2493
7354,2205
7355,1520
7356,1679
7357,2433
7358,2343
7359,1639
7360,1627
7361,2387
7362,2480
7363,1783
7364,1595
7365,2304
7366,2581
7367,1907
7368,1567
7369,2206
7370,2672
7371,2090
7372,1600
7373,2099
7374,2690
7375,2215
7376,1635
7377,2002
7378,2715
7379,2397
7380,1714
7381,1922
7382,2763
7383,2631
7384,1833
7385,1779
7386,2539
7387,2647
7388,1937
7389,1775
7390,2544
7391,2868
7392,2176
7393,1826
7394,2471
7395,2954
7396,2335
7397,1863
7398,2428
7399,3088
7400,2518
7401,1856
7402,2176
7403,2900
7404,2655
7405,2119
7406,2298
7407,2877
7408,2559
7409,1875
7410,1989
7411,2766
7412,2736
7413,1985
7414,1845
7415,2539
7416,2753
7417,2086
7418,1785
7419,2454
7420,2927
7421,2308
7422,1844
7423,2358
7424,2945
7425,2462
7426,2014
7427,2559
7428,3712
7429,3536
7430,3007
7431,3561
7432,4095
7433,3845
7434,2621
7435,2302
7436,2785
7437,2667
7438,1941
7439,1873
7440,2706
7441,3051
7442,2384
7443,2086
7444,2731
7445,3171
7446,2483
7447,2058
7448,2595
7449,3217
7450,2631
7451,2070
7452,2465
7453,3235
7454,2807
7455,2130
7456,2354
7457,3184
7458,2960
7459,2227
7460,2283
7461,3104
7462,3126
7463,2349
7464,2223
7465,3006
7466,3303
7467,2494
7468,2193
7469,2864
7470,3393
7471,2637
7472,2176
7473,2746
7474,3472
7475,2805
7476,2227
7477,2639
7478,3502
7479,3007
7480,2327
7481,2559
7482,3499
7483,3230
7484,2428
7485,2487
7486,3424
7487,3438
7488,2558
7489,2447
7490,3325
7491,3647
7492,2702
7493,2410
7494,3184
7495,3805
7496,2855
7497,2393
7498,2963
7499,3719
7500,2908
7501,2309
7502,2726
7503,3557
7504,2946
7505,2210
7506,2418
7507,3226
7508,2927
7509,2167
7510,2226
7511,2999
7512,2957
7513,2199
7514,2111
7515,2875
7516,3051
7517,2285
7518,1998
7519,2688
7520,3095
7521,2395
7522,1974
7523,2559
7524,3143
7525,2524
7526,1983
7527,2431
7528,3152
7529,2676
7530,2027
7531,2320
7532,3121
7533,2817
7534,2067
7535,2167
7536,3001
7537,2935
7538,2160
7539,2078
7540,2866
7541,3061
7542,2309
7543,2064
7544,2773
7545,3168
7546,2442
7547,2063
7548,2637
7549,3159
7550,2495
7551,1949
7552,2420
7553,3137
7554,2647
7555,1999
7556,2307
7557,3109
7558,2804
7559,2090
7560,2201
7561,3002
7562,2903
7563,2128
7564,2075
7565,2865
7566,2994
7567,2224
7568,1991
7569,2736
7570,3089
7571,2333
7572,1936
7573,2559
7574,3116
7575,2459
7576,1939
7577,2429
7578,3129
7579,2608
7580,1925
7581,2229
7582,2995
7583,2697
7584,1989
7585,2135
7586,2937
7587,2826
7588,2073
7589,2042
7590,2837
7591,2941
7592,2182
7593,1965
7594,2704
7595,3036
7596,2291
7597,1903
7598,2543
7599,3057
7600,2426
7601,1909
7602,2402
7603,3023
7604,2473
7605,1835
7606,2192
7607,2977
7608,2671
7609,1942
7610,2087
7611,2867
7612,2729
7613,1975
7614,1977
7615,2798
7616,2875
7617,2091
7618,1886
7619,2639
7620,2935
7621,2208
7622,1850
7623,2501
7624,2987
7625,2330
7626,1815
7627,2341
7628,2965
7629,2446
7630,1846
7631,2245
7632,3037
7633,2667
7634,1945
7635,2146
7636,2942
7637,2771
7638,2010
7639,2030
7640,2862
7641,2901
7642,2079
7643,1836
7644,2545
7645,2782
7646,2066
7647,1734
7648,2390
7649,2815
7650,2163
7651,1675
7652,2202
7653,2777
7654,2239
7655,1631
7656,2023
7657,2710
7658,2327
7659,1623
7660,1837
7661,2613
7662,2449
7663,1703
7664,1703
7665,2443
7666,2441
7667,1719
7668,1691
7669,2671
7670,3312
7671,2752
7672,2529
7673,3225
7674,3581
7675,2610
7676,1951
7677,2240
7678,2551
7679,1901
7680,1303
7681,1789
7682,2555
7683,2241
7684,1575
7685,1798
7686,2527
7687,2313
7688,1566
7689,1609
7690,2384
7691,2382
7692,1629
7693,1481
7694,2232
7695,2427
7696,1720
7697,1421
7698,2099
7699,2463
7700,1808
7701,1337
7702,1901
7703,2432
7704,1893
7705,1312
7706,1749
7707,2427
7708,2039
7709,1366
7710,1631
7711,2368
7712,2155
7713,1424
7714,1499
7715,2271
7716,2240
7717,1492
7718,1407
7719,2179
7720,2343
7721,1621
7722,1344
7723,2044
7724,2407
7725,1747
7726,1314
7727,1909
7728,2441
7729,1900
7730,1337
7731,1790
7732,2449
7733,2034
7734,1361
7735,1653
7736,2405
7737,2155
7738,1408
7739,1488
7740,2276
7741,2204
7742,1407
7743,1294
7744,2032
7745,2146
7746,1360
7747,1071
7748,1771
7749,2096
7750,1387
7751,931
7752,1525
7753,2031
7754,1429
7755,848
7756,1312
7757,1958
7758,1503
7759,816
7760,1119
7761,1892
7762,1622
7763,865
7764,976
7765,1787
7766,1712
7767,935
7768,865
7769,1678
7770,1793
7771,1038
7772,784
7773,1535
7774,1879
7775,1168
7776,757
7777,1405
7778,1911
7779,1300
7780,751
7781,1260
7782,1920
7783,1445
7784,767
7785,1106
7786,1894
7787,1610
7788,849
7789,979
7790,1799
7791,1696
7792,922
7793,922
7794,1776
7795,1883
7796,1099
7797,867
7798,1648
7799,1952
7800,1219
7801,806
7802,1477
7803,1987
7804,1355
7805,804
7806,1328
7807,1987
7808,1488
7809,822
7810,1184
7811,1941
7812,1614
7813,863
7814,1034
7815,1863
7816,1757
7817,975
7818,940
7819,1759
7820,1840
7821,1063
7822,848
7823,1643
7824,1934
7825,1195
7826,813
7827,1518
7828,2015
7829,1354
7830,801
7831,1390
7832,2027
7833,1456
7834,768
7835,1180
7836,1987
7837,1652
7838,895
7839,1126
7840,1966
7841,1776
7842,954
7843,952
7844,1800
7845,1859
7846,1102
7847,931
7848,1738
7849,1988
7850,1227
7851,855
7852,1601
7853,2080
7854,1424
7855,908
7856,1485
7857,2087
7858,1527
7859,890
7860,1342
7861,2153
7862,1777
7863,1018
7864,1228
7865,2021
7866,1853
7867,1119
7868,1200
7869,2047
7870,2096
7871,1325
7872,1171
7873,1985
7874,2242
7875,1472
7876,1099
7877,1776
7878,2188
7879,1514
7880,1023
7881,1629
7882,2222
7883,1662
7884,1049
7885,1483
7886,2203
7887,1802
7888,1076
7889,1325
7890,2134
7891,1940
7892,1168
7893,1221
7894,2070
7895,2087
7896,1299
7897,1152
7898,1949
7899,2135
7900,1360
7901,1098
7902,1985
7903,2658
7904,2292
7905,2066
7906,2767
7907,3408
7908,2507
7909,1725
7910,1976
7911,2479
7912,1872
7913,1050
7914,1322
7915,2195
7916,2054
7917,1325
7918,1421
7919,2258
7920,2236
7921,1424
7922,1311
7923,2128
7924,2331
7925,1582
7926,1275
7927,2027
7928,2420
7929,1721
7930,1259
7931,1898
7932,2474
7933,1875
7934,1279
7935,1763
7936,2474
7937,2041
7938,1342
7939,1653
7940,2462
7941,2223
7942,1460
7943,1572
7944,2409
7945,2351
7946,1561
7947,1471
7948,2303
7949,2477
7950,1718
7951,1453
7952,2218
7953,2590
7954,1899
7955,1462
7956,2097
7957,2655
7958,2068
7959,1488
7960,1997
7961,2704
7962,2260
7963,1582
7964,1904
7965,2704
7966,2421
7967,1654
7968,1780
7969,2627
7970,2559
7971,1775
7972,1706
7973,2508
7974,2643
7975,1842
7976,1575
7977,2317
7978,2640
7979,1886
7980,1412
7981,2030
7982,2533
7983,1904
7984,1309
7985,1814
7986,2470
7987,1975
7988,1269
7989,1600
7990,2374
7991,2086
7992,1325
7993,1469
7994,2299
7995,2194
7996,1390
7997,1342
7998,2189
7999,2307
8000,1519
8001,1298
8002,2111
8003,2450
8004,1729
8005,1316
8006,2003
8007,2506
8008,1856
8009,1287
8010,1855
8011,2539
8012,2032
8013,1343
8014,1729
8015,2522
8016,2192
8017,1420
8018,1609
8019,2450
8020,2302
8021,1471
8022,1465
8023,2340
8024,2414
8025,1584
8026,1387
8027,2218
8028,2516
8029,1749
8030,1365
8031,2121
8032,2625
8033,1922
8034,1349
8035,1949
8036,2640
8037,2090
8038,1389
8039,1801
8040,2597
8041,2224
8042,1431
8043,1650
8044,2512
8045,2349
8046,1513
8047,1524
8048,2416
8049,2477
8050,1636
8051,1424
8052,2256
8053,2541
8054,1760
8055,1381
8056,2124
8057,2602
8058,1905
8059,1366
8060,1967
8061,2623
8062,2067
8063,1394
8064,1833
8065,2609
8066,2206
8067,1437
8068,1680
8069,2537
8070,2338
8071,1499
8072,1525
8073,2413
8074,2474
8075,1669
8076,1505
8077,2352
8078,2559
8079,1755
8080,1379
8081,2135
8082,2619
8083,1927
8084,1393
8085,2000
8086,2647
8087,2087
8088,1425
8089,1870
8090,2640
8091,2256
8092,1535
8093,1817
8094,2693
8095,2470
8096,1641
8097,1701
8098,2559
8099,2591
8100,1777
8101,1646
8102,2466
8103,2669
8104,1808
8105,1436
8106,2191
8107,2640
8108,1924
8109,1410
8110,2045
8111,2671
8112,2064
8113,1381
8114,1847
8115,2623
8116,2185
8117,1413
8118,1686
8119,2535
8120,2311
8121,1493
8122,1576
8123,2445
8124,2409
8125,1535
8126,1397
8127,2253
8128,2539
8129,1905
8130,1875
8131,2992
8132,4035
8133,2945
8134,2278
8135,2759
8136,3334
8137,2367
8138,1455
8139,1761
8140,2448
8141,2045
8142,1399
8143,1789
8144,2661
8145,2397
8146,1584
8147,1663
8148,2503
8149,2461
8150,1636
8151,1535
8152,2403
8153,2594
8154,1786
8155,1472
8156,2253
8157,2657
8158,1922
8159,1440
8160,2102
8161,2688
8162,2065
8163,1453
8164,1974
8165,2711
8166,2246
8167,1511
8168,1827
8169,2659
8170,2391
8171,1602
8172,1732
8173,2614
8174,2548
8175,1718
8176,1646
8177,2494
8178,2654
8179,1854
8180,1593
8181,2389
8182,2770
8183,2021
8184,1561
8185,2223
8186,2801
8187,2177
8188,1600
8189,2146
8190,2871
8191,2373
8192,1666
8193,2014
8194,2857
8195,2545
8196,1753
8197,1895
8198,2753
8199,2657
8200,1824
8201,1744
8202,2586
8203,2707
8204,1862
8205,1557
8206,2301
8207,2631
8208,1871
8209,1386
8210,2032
8211,2549
8212,1895
8213,1287
8214,1791
8215,2444
8216,1956
8217,1276
8218,1658
8219,2442
8220,2084
8221,1269
8222,1438
8223,2302
8224,2201
8225,1392
8226,1360
8227,2213
8228,2317
8229,1524
8230,1307
8231,2109
8232,2416
8233,1657
8234,1259
8235,1964
8236,2477
8237,1845
8238,1273
8239,1798
8240,2443
8241,1942
8242,1265
8243,1659
8244,2445
8245,2128
8246,1365
8247,1535
8248,2374
8249,2240
8250,1424
8251,1407
8252,2253
8253,2319
8254,1521
8255,1318
8256,2118
8257,2401
8258,1648
8259,1260
8260,1959
8261,2439
8262,1777
8263,1235
8264,1805
8265,2441
8266,1920
8267,1248
8268,1642
8269,2395
8270,2055
8271,1311
8272,1507
8273,2323
8274,2167
8275,1385
8276,1402
8277,2235
8278,2287
8279,1484
8280,1292
8281,2093
8282,2351
8283,1591
8284,1216
8285,1936
8286,2406
8287,1739
8288,1206
8289,1785
8290,2415
8291,1861
8292,1199
8293,1613
8294,2351
8295,1983
8296,1264
8297,1503
8298,2318
8299,2130
8300,1346
8301,1386
8302,2229
8303,2258
8304,1460
8305,1298
8306,2096
8307,2329
8308,1584
8309,1245
8310,1963
8311,2381
8312,1703
8313,1198
8314,1789
8315,2389
8316,1851
8317,1249
8318,1683
8319,2383
8320,1989
8321,1279
8322,1535
8323,2333
8324,2138
8325,1371
8326,1441
8327,2287
8328,2317
8329,1535
8330,1407
8331,2192
8332,2406
8333,1663
8334,1346
8335,2095
8336,2507
8337,1807
8338,1259
8339,1808
8340,2380
8341,1830
8342,1221
8343,1667
8344,2342
8345,1915
8346,1200
8347,1460
8348,2253
8349,2018
8350,1254
8351,1344
8352,2187
8353,2178
8354,1392
8355,1264
8356,2078
8357,2275
8358,1513
8359,1187
8360,1879
8361,2237
8362,1559
8363,1227
8364,2081
8365,2978
8366,2652
8367,2194
8368,2641
8369,3306
8370,2631
8371,1735
8372,1767
8373,2314
8374,1921
8375,1133
8376,1310
8377,2246
8378,2251
8379,1457
8380,1373
8381,2204
8382,2350
8383,1535
8384,1254
8385,2029
8386,2397
8387,1679
8388,1226
8389,1882
8390,2429
8391,1839
8392,1264
8393,1754
8394,2425
8395,1970
8396,1294
8397,1615
8398,2393
8399,2128
8400,1373
8401,1494
8402,2320
8403,2251
8404,1459
8405,1399
8406,2224
8407,2368
8408,1611
8409,1360
8410,2128
8411,2464
8412,1753
8413,1329
8414,1993
8415,2523
8416,1929
8417,1360
8418,1877
8419,2559
8420,2109
8421,1446
8422,1802
8423,2559
8424,2273
8425,1525
8426,1693
8427,2518
8428,2438
8429,1657
8430,1615
8431,2438
8432,2551
8433,1786
8434,1535
8435,2283
8436,2559
8437,1827
8438,1397
8439,2032
8440,2496
8441,1840
8442,1275
8443,1776
8444,2393
8445,1878
8446,1187
8447,1519
8448,2261
8449,1951
8450,1201
8451,1367
8452,2178
8453,2055
8454,1268
8455,1232
8456,2046
8457,2128
8458,1357
8459,1151
8460,1939
8461,2236
8462,1493
8463,1107
8464,1785
8465,2277
8466,1660
8467,1136
8468,1682
8469,2314
8470,1799
8471,1137
8472,1519
8473,2288
8474,1955
8475,1215
8476,1409
8477,2229
8478,2086
8479,1298
8480,1303
8481,2141
8482,2199
8483,1408
8484,1216
8485,2006
8486,2282
8487,1535
8488,1170
8489,1872
8490,2333
8491,1671
8492,1142
8493,1714
8494,2321
8495,1796
8496,1155
8497,1566
8498,2309
8499,1941
8500,1215
8501,1436
8502,2243
8503,2064
8504,1267
8505,1298
8506,2139
8507,2160
8508,1360
8509,1200
8510,2009
8511,2263
8512,1514
8513,1182
8514,1900
8515,2340
8516,1673
8517,1163
8518,1745
8519,2351
8520,1798
8521,1171
8522,1611
8523,2335
8524,1949
8525,1231
8526,1481
8527,2288
8528,2103
8529,1323
8530,1367
8531,2192
8532,2189
8533,1401
8534,1270
8535,2093
8536,2311
8537,1561
8538,1233
8539,1936
8540,2351
8541,1692
8542,1213
8543,1809
8544,2390
8545,1840
8546,1218
8547,1667
8548,2374
8549,1973
8550,1269
8551,1529
8552,2311
8553,2098
8554,1326
8555,1398
8556,2232
8557,2240
8558,1483
8559,1391
8560,2221
8561,2434
8562,1680
8563,1375
8564,2113
8565,2506
8566,1821
8567,1364
8568,1990
8569,2535
8570,1920
8571,1265
8572,1716
8573,2422
8574,1995
8575,1267
8576,1535
8577,2357
8578,2113
8579,1331
8580,1413
8581,2249
8582,2192
8583,1375
8584,1293
8585,2139
8586,2307
8587,1524
8588,1243
8589,1997
8590,2383
8591,1669
8592,1200
8593,1814
8594,2337
8595,1809
8596,1408
8597,2203
8598,3312
8599,2966
8600,2258
8601,2437
8602,3155
8603,2691
8604,1697
8605,1535
8606,2195
8607,2059
8608,1295
8609,1306
8610,2213
8611,2395
8612,1611
8613,1328
8614,2086
8615,2416
8616,1697
8617,1269
8618,1943
8619,2478
8620,1856
8621,1266
8622,1778
8623,2457
8624,1995
8625,1322
8626,1661
8627,2431
8628,2130
8629,1367
8630,1520
8631,2352
8632,2273
8633,1500
8634,1449
8635,2261
8636,2383
8637,1618
8638,1383
8639,2157
8640,2476
8641,1755
8642,1350
8643,2014
8644,2518
8645,1904
8646,1362
8647,1904
8648,2558
8649,2086
8650,1411
8651,1778
8652,2544
8653,2243
8654,1504
8655,1685
8656,2501
8657,2395
8658,1623
8659,1607
8660,2421
8661,2509
8662,1742
8663,1535
8664,2311
8665,2601
8666,1860
8667,1461
8668,2138
8669,2602
8670,1918
8671,1342
8672,1865
8673,2481
8674,1951
8675,1258
8676,1632
8677,2375
8678,1986
8679,1207
8680,1405
8681,2239
8682,2086
8683,1266
8684,1255
8685,2108
8686,2155
8687,1337
8688,1158
8689,1975
8690,2239
8691,1463
8692,1089
8693,1819
8694,2283
8695,1598
8696,1075
8697,1694
8698,2341
8699,1792
8700,1116
8701,1535
8702,2303
8703,1920
8704,1168
8705,1417
8706,2262
8707,2075
8708,1264
8709,1299
8710,2174
8711,2202
8712,1383
8713,1209
8714,2025
8715,2272
8716,1501
8717,1164
8718,1899
8719,2326
8720,1637
8721,1123
8722,1729
8723,2334
8724,1762
8725,1125
8726,1584
8727,2314
8728,1900
8729,1166
8730,1424
8731,2256
8732,2047
8733,1246
8734,1302
8735,2154
8736,2142
8737,1328
8738,1185
8739,2015
8740,2240
8741,1459
8742,1129
8743,1872
8744,2282
8745,1589
8746,1104
8747,1717
8748,2304
8749,1729
8750,1107
8751,1573
8752,2300
8753,1879
8754,1146
8755,1413
8756,2224
8757,1996
8758,1223
8759,1297
8760,2145
8761,2122
8762,1313
8763,1201
8764,2023
8765,2210
8766,1429
8767,1121
8768,1875
8769,2277
8770,1575
8771,1106
8772,1750
8773,2320
8774,1713
8775,1105
8776,1599
8777,2303
8778,1860
8779,1146
8780,1445
8781,2256
8782,2003
8783,1250
8784,1390
8785,2257
8786,2223
8787,1413
8788,1322
8789,2153
8790,2311
8791,1525
8792,1266
8793,2055
8794,2417
8795,1664
8796,1169
8797,1792
8798,2323
8799,1713
8800,1134
8801,1645
8802,2326
8803,1855
8804,1145
8805,1461
8806,2241
8807,1951
8808,1183
8809,1317
8810,2151
8811,2064
8812,1259
8813,1200
8814,2039
8815,2191
8816,1403
8817,1130
8818,1867
8819,2179
8820,1449
8821,1131
8822,1999
8823,2823
8824,2479
8825,2093
8826,2621
8827,3243
8828,2507
8829,1659
8830,1771
8831,2293
8832,1820
8833,1007
8834,1218
8835,2130
8836,2109
8837,1351
8838,1328
8839,2161
8840,2246
8841,1449
8842,1219
8843,1989
8844,2294
8845,1568
8846,1168
8847,1855
8848,2357
8849,1723
8850,1168
8851,1712
8852,2352
8853,1872
8854,1229
8855,1607
8856,2366
8857,2032
8858,1274
8859,1458
8860,2298
8861,2175
8862,1374
8863,1360
8864,2220
8865,2304
8866,1521
8867,1327
8868,2115
8869,2393
8870,1654
8871,1287
8872,1990
8873,2470
8874,1841
8875,1328
8876,1901
8877,2539
8878,2021
8879,1371
8880,1762
8881,2512
8882,2177
8883,1456
8884,1682
8885,2497
8886,2346
8887,1565
8888,1584
8889,2410
8890,2461
8891,1684
8892,1503
8893,2282
8894,2512
8895,1751
8896,1373
8897,2047
8898,2471
8899,1791
8900,1244
8901,1783
8902,2365
8903,1808
8904,1158
8905,1556
8906,2267
8907,1878
8908,1149
8909,1375
8910,2186
8911,1999
8912,1230
8913,1253
8914,2071
8915,2090
8916,1300
8917,1163
8918,1975
8919,2206
8920,1435
8921,1101
8922,1821
8923,2254
8924,1600
8925,1116
8926,1716
8927,2303
8928,1754
8929,1143
8930,1603
8931,2319
8932,1920
8933,1201
8934,1471
8935,2269
8936,2058
8937,1278
8938,1344
8939,2189
8940,2173
8941,1372
8942,1252
8943,2058
8944,2255
8945,1488
8946,1179
8947,1911
8948,2318
8949,1642
8950,1168
8951,1777
8952,2342
8953,1766
8954,1155
8955,1634
8956,2339
8957,1914
8958,1209
8959,1488
8960,2287
8961,2033
8962,1263
8963,1360
8964,2193
8965,2161
8966,1377
8967,1270
8968,2075
8969,2253
8970,1511
8971,1234
8972,1963
8973,2307
8974,1613
8975,1168
8976,1808
8977,2353
8978,1777
8979,1186
8980,1671
8981,2352
8982,1911
8983,1222
8984,1535
8985,2320
8986,2065
8987,1310
8988,1413
8989,2226
8990,2165
8991,1392
8992,1317
8993,2119
8994,2254
8995,1475
8996,1221
8997,1968
8998,2331
8999,1655
9000,1227
9001,1856
9002,2377
9003,1801
9004,1250
9005,1749
9006,2401
9007,1936
9008,1279
9009,1622
9010,2375
9011,2075
9012,1326
9013,1467
9014,2293
9015,2221
9016,1475
9017,1474
9018,2309
9019,2421
9020,1648
9021,1392
9022,2173
9023,2497
9024,1781
9025,1392
9026,2090
9027,2559
9028,1872
9029,1264
9030,1799
9031,2482
9032,1999
9033,1322
9034,1682
9035,2448
9036,2117
9037,1328
9038,1507
9039,2355
9040,2207
9041,1382
9042,1385
9043,2238
9044,2303
9045,1465
9046,1274
9047,2127
9048,2402
9049,1610
9050,1210
9051,1931
9052,2384
9053,1715
9054,1306
9055,2180
9056,3252
9057,2857
9058,2256
9059,2642
9060,3434
9061,2773
9062,1780
9063,1731
9064,2330
9065,2032
9066,1221
9067,1339
9068,2291
9069,2378
9070,1573
9071,1392
9072,2211
9073,2455
9074,1670
9075,1307
9076,2063
9077,2515
9078,1815
9079,1281
9080,1907
9081,2547
9082,1978
9083,1311
9084,1744
9085,2512
9086,2149
9087,1399
9088,1648
9089,2473
9090,2282
9091,1473
9092,1516
9093,2383
9094,2415
9095,1611
9096,1456
9097,2286
9098,2527
9099,1763
9100,1424
9101,2177
9102,2621
9103,1936
9104,1438
9105,2064
9106,2667
9107,2106
9108,1479
9109,1936
9110,2683
9111,2285
9112,1559
9113,1830
9114,2658
9115,2455
9116,1680
9117,1738
9118,2592
9119,2610
9120,1808
9121,1682
9122,2500
9123,2725
9124,1936
9125,1607
9126,2323
9127,2736
9128,2010
9129,1490
9130,2090
9131,2651
9132,2030
9133,1366
9134,1805
9135,2500
9136,2061
9137,1312
9138,1587
9139,2389
9140,2135
9141,1339
9142,1424
9143,2271
9144,2228
9145,1421
9146,1312
9147,2129
9148,2286
9149,1554
9150,1311
9151,2000
9152,2315
9153,1641
9154,1266
9155,1861
9156,2321
9157,1773
9158,1271
9159,1760
9160,2367
9161,1939
9162,1339
9163,1664
9164,2352
9165,2095
9166,1423
9167,1584
9168,2330
9169,2224
9170,1505
9171,1482
9172,2237
9173,2321
9174,1600
9175,1392
9176,2103
9177,2373
9178,1695
9179,1338
9180,1983
9181,2437
9182,1842
9183,1341
9184,1856
9185,2446
9186,1951
9187,1324
9188,1694
9189,2401
9190,2079
9191,1374
9192,1581
9193,2350
9194,2197
9195,1442
9196,1453
9197,2234
9198,2278
9199,1535
9200,1403
9201,2121
9202,2316
9203,1619
9204,1324
9205,1981
9206,2381
9207,1770
9208,1326
9209,1862
9210,2396
9211,1882
9212,1314
9213,1735
9214,2403
9215,2020
9216,1346
9217,1598
9218,2335
9219,2142
9220,1413
9221,1483
9222,2247
9223,2240
9224,1503
9225,1403
9226,2139
9227,2311
9228,1595
9229,1318
9230,2000
9231,2379
9232,1730
9233,1293
9234,1866
9235,2391
9236,1854
9237,1297
9238,1747
9239,2391
9240,1989
9241,1355
9242,1657
9243,2400
9244,2194
9245,1493
9246,1590
9247,2335
9248,2303
9249,1574
9250,1498
9251,2258
9252,2419
9253,1677
9254,1356
9255,1978
9256,2303
9257,1670
9258,1277
9259,1840
9260,2319
9261,1763
9262,1231
9263,1674
9264,2288
9265,1863
9266,1218
9267,1503
9268,2215
9269,1966
9270,1276
9271,1402
9272,2163
9273,2111
9274,1360
9275,1277
9276,1998
9277,2096
9278,1351
9279,1193
9280,2065
9281,2663
9282,2317
9283,2142
9284,2786
9285,3239
9286,2399
9287,1709
9288,1953
9289,2317
9290,1675
9291,949
9292,1296
9293,2095
9294,1877
9295,1204
9296,1359
9297,2128
9298,2029
9299,1267
9300,1225
9301,1971
9302,2066
9303,1331
9304,1136
9305,1853
9306,2128
9307,1430
9308,1076
9309,1713
9310,2177
9311,1575
9312,1055
9313,1567
9314,2165
9315,1680
9316,1040
9317,1381
9318,2093
9319,1780
9320,1087
9321,1264
9322,2028
9323,1904
9324,1172
9325,1185
9326,1938
9327,2006
9328,1277
9329,1104
9330,1837
9331,2096
9332,1395
9333,1068
9334,1710
9335,2141
9336,1535
9337,1072
9338,1603
9339,2176
9340,1687
9341,1106
9342,1474
9343,2159
9344,1827
9345,1153
9346,1354
9347,2097
9348,1939
9349,1221
9350,1235
9351,1970
9352,1995
9353,1244
9354,1056
9355,1735
9356,1921
9357,1207
9358,862
9359,1470
9360,1845
9361,1202
9362,732
9363,1245
9364,1789
9365,1261
9366,668
9367,1040
9368,1696
9369,1325
9370,656
9371,862
9372,1606
9373,1430
9374,722
9375,746
9376,1495
9377,1519
9378,804
9379,674
9380,1390
9381,1586
9382,889
9383,610
9384,1274
9385,1669
9386,1040
9387,595
9388,1152
9389,1699
9390,1170
9391,620
9392,1034
9393,1691
9394,1306
9395,651
9396,893
9397,1637
9398,1424
9399,707
9400,783
9401,1535
9402,1535
9403,805
9404,690
9405,1425
9406,1614
9407,909
9408,639
9409,1306
9410,1659
9411,1019
9412,623
9413,1189
9414,1699
9415,1141
9416,598
9417,1022
9418,1674
9419,1257
9420,619
9421,903
9422,1646
9423,1408
9424,704
9425,814
9426,1583
9427,1531
9428,793
9429,715
9430,1458
9431,1623
9432,910
9433,683
9434,1374
9435,1710
9436,1053
9437,655
9438,1244
9439,1747
9440,1202
9441,676
9442,1127
9443,1747
9444,1329
9445,715
9446,1035
9447,1757
9448,1499
9449,803
9450,934
9451,1687
9452,1620
9453,907
9454,854
9455,1613
9456,1733
9457,1033
9458,816
9459,1516
9460,1835
9461,1187
9462,825
9463,1427
9464,1893
9465,1323
9466,830
9467,1325
9468,1918
9469,1472
9470,883
9471,1250
9472,1983
9473,1719
9474,1069
9475,1232
9476,1952
9477,1841
9478,1146
9479,1141
9480,1909
9481,2015
9482,1308
9483,1094
9484,1751
9485,1995
9486,1329
9487,999
9488,1631
9489,2047
9490,1437
9491,944
9492,1456
9493,2047
9494,1584
9495,990
9496,1357
9497,2043
9498,1739
9499,1079
9500,1273
9501,2025
9502,1889
9503,1187
9504,1200
9505,1936
9506,1964
9507,1225
9508,1101
9509,1955
9510,2445
9511,2081
9512,2061
9513,2871
9514,3417
9515,2496
9516,1851
9517,2159
9518,2453
9519,1712
9520,975
9521,1353
9522,2132
9523,1894
9524,1290
9525,1535
9526,2279
9527,2101
9528,1386
9529,1435
9530,2206
9531,2230
9532,1491
9533,1365
9534,2115
9535,2353
9536,1669
9537,1363
9538,2023
9539,2416
9540,1801
9541,1353
9542,1916
9543,2479
9544,1967
9545,1398
9546,1811
9547,2481
9548,2130
9549,1472
9550,1744
9551,2496
9552,2317
9553,1613
9554,1683
9555,2451
9556,2468
9557,1746
9558,1635
9559,2381
9560,2599
9561,1901
9562,1635
9563,2323
9564,2730
9565,2106
9566,1680
9567,2255
9568,2816
9569,2282
9570,1728
9571,2171
9572,2864
9573,2459
9574,1797
9575,2066
9576,2832
9577,2626
9578,1905
9579,1993
9580,2769
9581,2736
9582,1961
9583,1843
9584,2581
9585,2737
9586,1983
9587,1699
9588,2368
9589,2693
9590,1999
9591,1554
9592,2123
9593,2639
9594,2084
9595,1527
9596,1974
9597,2610
9598,2183
9599,1523
9600,1823
9601,2559
9602,2327
9603,1607
9604,1718
9605,2491
9606,2434
9607,1701
9608,1648
9609,2412
9610,2557
9611,1827
9612,1599
9613,2321
9614,2688
9615,2010
9616,1597
9617,2210
9618,2738
9619,2159
9620,1616
9621,2105
9622,2784
9623,2350
9624,1689
9625,1995
9626,2783
9627,2512
9628,1744
9629,1846
9630,2662
9631,2628
9632,1863
9633,1793
9634,2593
9635,2736
9636,1973
9637,1723
9638,2443
9639,2785
9640,2094
9641,1680
9642,2321
9643,2857
9644,2251
9645,1697
9646,2192
9647,2870
9648,2405
9649,1724
9650,2057
9651,2813
9652,2514
9653,1805
9654,1949
9655,2737
9656,2618
9657,1835
9658,1808
9659,2624
9660,2751
9661,1984
9662,1770
9663,2537
9664,2898
9665,2197
9666,1826
9667,2453
9668,2915
9669,2234
9670,1712
9671,2257
9672,2960
9673,2523
9674,2001
9675,2286
9676,2854
9677,2407
9678,1647
9679,1803
9680,2630
9681,2559
9682,1863
9683,1857
9684,2671
9685,2779
9686,2018
9687,1813
9688,2559
9689,2873
9690,2133
9691,1744
9692,2407
9693,2896
9694,2252
9695,1719
9696,2271
9697,2934
9698,2409
9699,1755
9700,2151
9701,3007
9702,2663
9703,1847
9704,2032
9705,2996
9706,2885
9707,1983
9708,1921
9709,2849
9710,3037
9711,2176
9712,1893
9713,2685
9714,3003
9715,2139
9716,1693
9717,2423
9718,3008
9719,2282
9720,1669
9721,2235
9722,2981
9723,2406
9724,1676
9725,2047
9726,2885
9727,2517
9728,1712
9729,1901
9730,2796
9731,2670
9732,1831
9733,1808
9734,2672
9735,2752
9736,1889
9737,1648
9738,2483
9739,2946
9740,2370
9741,2263
9742,3415
9743,4095
9744,3383
9745,2559
9746,2967
9747,3619
9748,2555
9749,1590
9750,1853
9751,2644
9752,2370
9753,1687
9754,1942
9755,2834
9756,2689
9757,1869
9758,1851
9759,2672
9760,2723
9761,1918
9762,1728
9763,2511
9764,2800
9765,2054
9766,1679
9767,2359
9768,2841
9769,2179
9770,1650
9771,2219
9772,2863
9773,2314
9774,1655
9775,2041
9776,2811
9777,2461
9778,1739
9779,1943
9780,2767
9781,2608
9782,1810
9783,1825
9784,2667
9785,2724
9786,1931
9787,1759
9788,2541
9789,2819
9790,2078
9791,1727
9792,2428
9793,2915
9794,2246
9795,1744
9796,2297
9797,2928
9798,2385
9799,1757
9800,2150
9801,2896
9802,2535
9803,1840
9804,2068
9805,2880
9806,2702
9807,1939
9808,1966
9809,2775
9810,2775
9811,1970
9812,1797
9813,2559
9814,2798
9815,2000
9816,1633
9817,2311
9818,2704
9819,1994
9820,1486
9821,2057
9822,2618
9823,2030
9824,1390
9825,1825
9826,2539
9827,2128
9828,1392
9829,1654
9830,2438
9831,2208
9832,1429
9833,1499
9834,2335
9835,2325
9836,1535
9837,1419
9838,2225
9839,2429
9840,1671
9841,1358
9842,2084
9843,2461
9844,1761
9845,1307
9846,1946
9847,2509
9848,1908
9849,1306
9850,1799
9851,2531
9852,2112
9853,1407
9854,1717
9855,2501
9856,2203
9857,1379
9858,1471
9859,2330
9860,2298
9861,1503
9862,1410
9863,2223
9864,2365
9865,1591
9866,1330
9867,2096
9868,2444
9869,1734
9870,1280
9871,1913
9872,2452
9873,1859
9874,1279
9875,1783
9876,2464
9877,1989
9878,1294
9879,1604
9880,2371
9881,2097
9882,1341
9883,1463
9884,2289
9885,2227
9886,1453
9887,1382
9888,2189
9889,2320
9890,1553
9891,1287
9892,2043
9893,2384
9894,1695
9895,1264
9896,1873
9897,2375
9898,1797
9899,1246
9900,1743
9901,2382
9902,1923
9903,1270
9904,1603
9905,2363
9906,2081
9907,1323
9908,1450
9909,2271
9910,2201
9911,1454
9912,1389
9913,2158
9914,2250
9915,1495
9916,1292
9917,2057
9918,2375
9919,1675
9920,1259
9921,1895
9922,2382
9923,1774
9924,1231
9925,1745
9926,2389
9927,1914
9928,1255
9929,1602
9930,2346
9931,2040
9932,1341
9933,1535
9934,2368
9935,2260
9936,1488
9937,1469
9938,2277
9939,2370
9940,1614
9941,1410
9942,2199
9943,2492
9944,1744
9945,1312
9946,1945
9947,2391
9948,1753
9949,1232
9950,1776
9951,2371
9952,1857
9953,1221
9954,1597
9955,2320
9956,1967
9957,1229
9958,1425
9959,2233
9960,2081
9961,1296
9962,1303
9963,2127
9964,2176
9965,1383
9966,1183
9967,1951
9968,2177
9969,1455
9970,1228
9971,2138
9972,2883
9973,2469
9974,2115
9975,2674
9976,3210
9977,2448
9978,1667
9979,1869
9980,2373
9981,1838
9982,1072
9983,1363
9984,2271
9985,2140
9986,1367
9987,1406
9988,2247
9989,2246
9990,1429
9991,1285
9992,2115
9993,2337
9994,1559
9995,1221
9996,1965
9997,2386
9998,1687
9999,1186
10000,1811
10001,2429
10002,1856
10003,1226
10004,1689
10005,2435
10006,2000
10007,1262
10008,1535
10009,2373
10010,2160
10011,1363
10012,1443
10013,2305
10014,2289
10015,1474
10016,1366
10017,2223
10018,2430
10019,1654
10020,1349
10021,2128
10022,2541
10023,1830
10024,1363
10025,2018
10026,2615
10027,2007
10028,1389
10029,1882
10030,2630
10031,2189
10032,1457
10033,1776
10034,2611
10035,2359
10036,1565
10037,1671
10038,2528
10039,2496
10040,1681
10041,1559
10042,2384
10043,2527
10044,1690
10045,1360
10046,2127
10047,2481
10048,1728
10049,1235
10050,1879
10051,2421
10052,1758
10053,1109
10054,1601
10055,2307
10056,1824
10057,1091
10058,1424
10059,2254
10060,1955
10061,1151
10062,1277
10063,2145
10064,2071
10065,1232
10066,1164
10067,2030
10068,2160
10069,1331
10070,1072
10071,1885
10072,2256
10073,1483
10074,1035
10075,1733
10076,2287
10077,1635
10078,1038
10079,1584
10080,2287
10081,1791
10082,1076
10083,1428
10084,2238
10085,1900
10086,1093
10087,1255
10088,2139
10089,2032
10090,1188
10091,1157
10092,2032
10093,2154
10094,1322
10095,1064
10096,1858
10097,2177
10098,1401
10099,981
10100,1698
10101,2210
10102,1518
10103,922
10104,1484
10105,2175
10106,1647
10107,951
10108,1344
10109,2143
10110,1776
10111,977
10112,1162
10113,2024
10114,1875
10115,1040
10116,1018
10117,1892
10118,1968
10119,1136
10120,906
10121,1724
10122,2011
10123,1237
10124,837
10125,1535
10126,2028
10127,1342
10128,787
10129,1377
10130,2031
10131,1479
10132,795
10133,1202
10134,1984
10135,1611
10136,837
10137,1040
10138,1868
10139,1689
10140,871
10141,880
10142,1747
10143,1780
10144,940
10145,746
10146,1575
10147,1829
10148,1052
10149,672
10150,1405
10151,1856
10152,1152
10153,614
10154,1201
10155,1841
10156,1265
10157,598
10158,1023
10159,1786
10160,1363
10161,599
10162,842
10163,1698
10164,1488
10165,685
10166,745
10167,1639
10168,1656
10169,811
10170,640
10171,1477
10172,1709
10173,897
10174,560
10175,1344
10176,1776
10177,975
10178,398
10179,991
10180,1633
10181,1011
10182,349
10183,801
10184,1581
10185,1125
10186,341
10187,589
10188,1437
10189,1200
10190,370
10191,438
10192,1330
10193,1307
10194,448
10195,318
10196,1181
10197,1383
10198,548
10199,204
10200,949
10201,1345
10202,621
10203,254
10204,1175
10205,2096
10206,1677
10207,1113
10208,1535
10209,2122
10210,1516
10211,586
10212,667
10213,1316
10214,921
10215,93
10216,262
10217,1244
10218,1246
10219,400
10220,288
10221,1154
10222,1317
10223,479
10224,189
10225,990
10226,1395
10227,629
10228,154
10229,833
10230,1424
10231,767
10232,164
10233,686
10234,1434
10235,957
10236,235
10237,546
10238,1398
10239,1122
10240,321
10241,457
10242,1351
10243,1284
10244,453
10245,377
10246,1247
10247,1409
10248,614
10249,358
10250,1166
10251,1535
10252,787
10253,354
10254,1051
10255,1632
10256,1006
10257,445
10258,998
10259,1720
10260,1226
10261,528
10262,895
10263,1745
10264,1447
10265,674
10266,842
10267,1727
10268,1625
10269,794
10270,754
10271,1653
10272,1797
10273,982
10274,740
10275,1569
10276,1904
10277,1106
10278,666
10279,1377
10280,1906
10281,1200
10282,592
10283,1152
10284,1853
10285,1293
10286,560
10287,944
10288,1794
10289,1425
10290,618
10291,825
10292,1765
10293,1630
10294,752
10295,762
10296,1712
10297,1811
10298,944
10299,736
10300,1651
10301,1979
10302,1143
10303,730
10304,1535
10305,2096
10306,1369
10307,791
10308,1462
10309,2182
10310,1577
10311,861
10312,1344
10313,2222
10314,1821
10315,993
10316,1269
10317,2228
10318,2036
10319,1146
10320,1178
10321,2149
10322,2205
10323,1317
10324,1147
10325,2066
10326,2352
10327,1501
10328,1111
10329,1938
10330,2465
10331,1709
10332,1132
10333,1810
10334,2517
10335,1890
10336,1159
10337,1661
10338,2516
10339,2091
10340,1262
10341,1555
10342,2491
10343,2283
10344,1394
10345,1456
10346,2401
10347,2413
10348,1526
10349,1383
10350,2302
10351,2559
10352,1735
10353,1360
10354,2169
10355,2667
10356,1919
10357,1377
10358,2030
10359,2697
10360,2096
10361,1422
10362,1903
10363,2702
10364,2265
10365,1472
10366,1771
10367,2672
10368,2450
10369,1606
10370,1665
10371,2559
10372,2605
10373,1749
10374,1621
10375,2519
10376,2783
10377,1948
10378,1603
10379,2400
10380,2896
10381,2123
10382,1600
10383,2269
10384,2960
10385,2311
10386,1634
10387,2143
10388,3011
10389,2550
10390,1776
10391,2083
10392,3039
10393,2783
10394,1908
10395,1999
10396,2983
10397,2979
10398,2080
10399,1966
10400,2880
10401,3094
10402,2131
10403,1781
10404,2624
10405,3146
10406,2288
10407,1749
10408,2444
10409,3179
10410,2439
10411,1755
10412,2282
10413,3170
10414,2611
10415,1805
10416,2142
10417,3121
10418,2784
10419,1891
10420,2006
10421,3011
10422,2951
10423,2002
10424,1875
10425,2801
10426,3051
10427,2240
10428,2170
10429,3569
10430,4095
10431,3541
10432,2867
10433,3639
10434,4095
10435,2961
10436,2039
10437,2397
10438,3121
10439,2490
10440,1733
10441,2173
10442,3226
10443,2868
10444,1961
10445,2096
10446,3120
10447,2992
10448,2001
10449,1905
10450,2896
10451,3120
10452,2165
10453,1865
10454,2764
10455,3287
10456,2349
10457,1842
10458,2608
10459,3344
10460,2506
10461,1839
10462,2427
10463,3349
10464,2672
10465,1872
10466,2273
10467,3313
10468,2875
10469,1964
10470,2127
10471,3165
10472,3036
10473,2064
10474,2003
10475,3021
10476,3226
10477,2226
10478,1953
10479,2877
10480,3392
10481,2390
10482,1916
10483,2710
10484,3494
10485,2587
10486,1937
10487,2558
10488,3547
10489,2786
10490,1987
10491,2418
10492,3535
10493,3001
10494,2069
10495,2266
10496,3408
10497,3185
10498,2148
10499,2113
10500,3161
10501,3297
10502,2212
10503,1919
10504,2833
10505,3242
10506,2230
10507,1735
10508,2533
10509,3171
10510,2304
10511,1648
10512,2285
10513,3102
10514,2427
10515,1630
10516,2080
10517,3027
10518,2583
10519,1680
10520,1903
10521,2893
10522,2682
10523,1726
10524,1744
10525,2757
10526,2844
10527,1884
10528,1655
10529,2602
10530,2951
10531,2032
10532,1599
10533,2434
10534,3045
10535,2210
10536,1586
10537,2267
10538,3083
10539,2377
10540,1584
10541,2090
10542,3047
10543,2559
10544,1663
10545,1926
10546,2947
10547,2716
10548,1746
10549,1775
10550,2781
10551,2841
10552,1872
10553,1675
10554,2633
10555,2946
10556,1998
10557,1579
10558,2432
10559,3013
10560,2169
10561,1563
10562,2262
10563,3039
10564,2336
10565,1569
10566,2078
10567,2988
10568,2487
10569,1610
10570,1891
10571,2880
10572,2640
10573,1697
10574,1743
10575,2751
10576,2789
10577,1827
10578,1636
10579,2587
10580,2882
10581,1970
10582,1594
10583,2407
10584,2883
10585,2112
10586,1609
10587,2259
10588,2878
10589,2240
10590,1611
10591,2110
10592,2839
10593,2362
10594,1639
10595,1971
10596,2832
10597,2547
10598,1725
10599,1831
10600,2704
10601,2665
10602,1840
10603,1767
10604,2657
10605,2863
10606,2031
10607,1750
10608,2527
10609,2917
10610,2122
10611,1659
10612,2366
10613,3030
10614,2338
10615,1679
10616,2164
10617,2883
10618,2350
10619,1594
10620,1941
10621,2797
10622,2475
10623,1647
10624,1791
10625,2691
10626,2594
10627,1706
10628,1617
10629,2500
10630,2662
10631,1811
10632,1535
10633,2379
10634,2743
10635,1936
10636,1489
10637,2203
10638,2754
10639,2030
10640,1406
10641,2064
10642,3043
10643,2809
10644,2377
10645,2966
10646,4095
10647,3457
10648,2308
10649,2263
10650,2897
10651,2496
10652,1472
10653,1412
10654,2384
10655,2607
10656,1813
10657,1600
10658,2416
10659,2746
10660,1939
10661,1499
10662,2222
10663,2772
10664,2092
10665,1497
10666,2094
10667,2800
10668,2230
10669,1498
10670,1900
10671,2733
10672,2375
10673,1570
10674,1775
10675,2672
10676,2523
10677,1667
10678,1658
10679,2547
10680,2645
10681,1778
10682,1557
10683,2410
10684,2744
10685,1946
10686,1535
10687,2265
10688,2796
10689,2102
10690,1520
10691,2111
10692,2825
10693,2274
10694,1582
10695,2002
10696,2859
10697,2478
10698,1673
10699,1887
10700,2783
10701,2633
10702,1795
10703,1808
10704,2675
10705,2739
10706,1905
10707,1737
10708,2559
10709,2859
10710,2065
10711,1695
10712,2409
10713,2864
10714,2128
10715,1581
10716,2141
10717,2736
10718,2139
10719,1455
10720,1871
10721,2601
10722,2166
10723,1373
10724,1610
10725,2433
10726,2227
10727,1402
10728,1431
10729,2282
10730,2288
10731,1453
10732,1319
10733,2146
10734,2367
10735,1567
10736,1225
10737,1979
10738,2416
10739,1702
10740,1199
10741,1840
10742,2458
10743,1857
10744,1195
10745,1674
10746,2431
10747,2008
10748,1264
10749,1535
10750,2367
10751,2131
10752,1331
10753,1434
10754,2307
10755,2284
10756,1439
10757,1328
10758,2177
10759,2367
10760,1535
10761,1245
10762,2029
10763,2448
10764,1703
10765,1205
10766,1845
10767,2430
10768,1792
10769,1157
10770,1648
10771,2379
10772,1911
10773,1168
10774,1485
10775,2331
10776,2089
10777,1277
10778,1379
10779,2247
10780,2198
10781,1360
10782,1270
10783,2119
10784,2288
10785,1460
10786,1167
10787,1957
10788,2357
10789,1611
10790,1136
10791,1801
10792,2378
10793,1746
10794,1135
10795,1645
10796,2365
10797,1885
10798,1147
10799,1478
10800,2295
10801,2006
10802,1206
10803,1346
10804,2208
10805,2135
10806,1297
10807,1229
10808,2097
10809,2254
10810,1424
10811,1152
10812,1952
10813,2325
10814,1566
10815,1105
10816,1793
10817,2353
10818,1713
10819,1115
10820,1649
10821,2352
10822,1847
10823,1120
10824,1485
10825,2294
10826,1982
10827,1184
10828,1348
10829,2228
10830,2156
10831,1335
10832,1306
10833,2189
10834,2336
10835,1511
10836,1265
10837,2074
10838,2415
10839,1651
10840,1242
10841,1951
10842,2474
10843,1766
10844,1120
10845,1662
10846,2367
10847,1853
10848,1135
10849,1488
10850,2288
10851,1947
10852,1137
10853,1306
10854,2173
10855,2064
10856,1231
10857,1203
10858,2062
10859,2160
10860,1329
10861,1117
10862,1939
10863,2277
10864,1491
10865,1059
10866,1744
10867,2226
10868,1588
10869,1175
10870,2013
10871,3057
10872,2765
10873,2160
10874,2467
10875,3182
10876,2622
10877,1585
10878,1474
10879,2096
10880,1863
10881,1077
10882,1169
10883,2132
10884,2275
10885,1456
10886,1236
10887,2036
10888,2322
10889,1534
10890,1136
10891,1867
10892,2373
10893,1699
10894,1143
10895,1721
10896,2381
10897,1835
10898,1146
10899,1573
10900,2366
10901,2001
10902,1218
10903,1431
10904,2288
10905,2147
10906,1331
10907,1346
10908,2213
10909,2277
10910,1456
10911,1283
10912,2114
10913,2395
10914,1618
10915,1247
10916,1988
10917,2471
10918,1785
10919,1253
10920,1855
10921,2494
10922,1954
10923,1309
10924,1754
10925,2529
10926,2149
10927,1387
10928,1639
10929,2476
10930,2304
10931,1488
10932,1527
10933,2383
10934,2433
10935,1623
10936,1473
10937,2302
10938,2553
10939,1770
10940,1407
10941,2125
10942,2559
10943,1841
10944,1295
10945,1865
10946,2443
10947,1840
10948,1163
10949,1591
10950,2319
10951,1895
10952,1131
10953,1364
10954,2182
10955,1977
10956,1158
10957,1203
10958,2047
10959,2058
10960,1233
10961,1099
10962,1911
10963,2144
10964,1360
10965,1040
10966,1782
10967,2211
10968,1508
10969,1009
10970,1638
10971,2251
10972,1681
10973,1049
10974,1510
10975,2256
10976,1840
10977,1101
10978,1375
10979,2205
10980,1984
10981,1185
10982,1260
10983,2112
10984,2113
10985,1297
10986,1178
10987,1999
10988,2211
10989,1423
10990,1108
10991,1846
10992,2256
10993,1535
10994,1076
10995,1709
10996,2288
10997,1700
10998,1084
10999,1554
11000,2266
11001,1834
11002,1111
11003,1401
11004,2207
11005,1971
11006,1199
11007,1306
11008,2135
11009,2091
11010,1284
11011,1194
11012,2016
11013,2197
11014,1402
11015,1110
11016,1863
11017,2256
11018,1535
11019,1074
11020,1715
11021,2289
11022,1684
11023,1078
11024,1573
11025,2288
11026,1849
11027,1139
11028,1454
11029,2240
11030,1968
11031,1183
11032,1303
11033,2149
11034,2098
11035,1301
11036,1230
11037,2047
11038,2201
11039,1407
11040,1146
11041,1911
11042,2277
11043,1555
11044,1123
11045,1766
11046,2309
11047,1705
11048,1116
11049,1623
11050,2303
11051,1839
11052,1138
11053,1472
11054,2256
11055,1983
11056,1215
11057,1355
11058,2183
11059,2111
11060,1311
11061,1265
11062,2085
11063,2207
11064,1411
11065,1166
11066,1934
11067,2288
11068,1569
11069,1151
11070,1819
11071,2368
11072,1765
11073,1213
11074,1743
11075,2409
11076,1933
11077,1254
11078,1597
11079,2375
11080,2098
11081,1333
11082,1439
11083,2195
11084,2060
11085,1254
11086,1231
11087,2036
11088,2145
11089,1346
11090,1118
11091,1869
11092,2155
11093,1388
11094,985
11095,1671
11096,2188
11097,1554
11098,1008
11099,1535
11100,2189
11101,1688
11102,1010
11103,1366
11104,2111
11105,1753
11106,965
11107,1171
11108,2123
11109,2238
11110,1757
11111,2001
11112,2965
11113,3011
11114,2003
11115,1655
11116,2221
11117,2243
11118,1264
11119,755
11120,1437
11121,2009
11122,1449
11123,959
11124,1518
11125,2135
11126,1616
11127,938
11128,1304
11129,2038
11130,1697
11131,953
11132,1139
11133,1945
11134,1807
11135,1010
11136,1017
11137,1819
11138,1873
11139,1102
11140,912
11141,1689
11142,1943
11143,1205
11144,843
11145,1521
11146,1997
11147,1344
11148,822
11149,1367
11150,1967
11151,1441
11152,816
11153,1211
11154,1941
11155,1589
11156,868
11157,1075
11158,1856
11159,1691
11160,933
11161,976
11162,1789
11163,1830
11164,1063
11165,895
11166,1663
11167,1897
11168,1169
11169,850
11170,1535
11171,1958
11172,1313
11173,837
11174,1388
11175,1968
11176,1437
11177,823
11178,1232
11179,1918
11180,1520
11181,787
11182,994
11183,1741
11184,1507
11185,714
11186,717
11187,1478
11188,1472
11189,677
11190,494
11191,1223
11192,1430
11193,679
11194,343
11195,1008
11196,1412
11197,745
11198,272
11199,821
11200,1399
11201,851
11202,258
11203,663
11204,1365
11205,975
11206,286
11207,533
11208,1303
11209,1104
11210,350
11211,402
11212,1200
11213,1217
11214,462
11215,346
11216,1107
11217,1314
11218,576
11219,275
11220,947
11221,1355
11222,693
11223,249
11224,827
11225,1398
11226,847
11227,272
11228,702
11229,1385
11230,970
11231,302
11232,562
11233,1331
11234,1115
11235,383
11236,458
11237,1244
11238,1227
11239,460
11240,368
11241,1135
11242,1311
11243,573
11244,300
11245,987
11246,1360
11247,693
11248,281
11249,875
11250,1427
11251,851
11252,282
11253,718
11254,1392
11255,960
11256,304
11257,592
11258,1350
11259,1132
11260,412
11261,529
11262,1327
11263,1286
11264,539
11265,459
11266,1233
11267,1395
11268,662
11269,426
11270,1143
11271,1513
11272,829
11273,416
11274,1040
11275,1583
11276,998
11277,453
11278,920
11279,1595
11280,1152
11281,502
11282,832
11283,1603
11284,1342
11285,609
11286,736
11287,1535
11288,1477
11289,726
11290,689
11291,1491
11292,1631
11293,882
11294,660
11295,1398
11296,1743
11297,1057
11298,662
11299,1298
11300,1809
11301,1219
11302,689
11303,1200
11304,1853
11305,1405
11306,770
11307,1120
11308,1877
11309,1605
11310,876
11311,1023
11312,1854
11313,1808
11314,1084
11315,1079
11316,1885
11317,1999
11318,1253
11319,1065
11320,1812
11321,2128
11322,1443
11323,1081
11324,1703
11325,2158
11326,1503
11327,971
11328,1481
11329,2126
11330,1663
11331,1018
11332,1374
11333,2117
11334,1807
11335,1077
11336,1243
11337,2041
11338,1936
11339,1193
11340,1185
11341,1977
11342,2077
11343,1324
11344,1141
11345,1895
11346,2192
11347,1472
11348,1102
11349,1745
11350,2275
11351,1827
11352,1603
11353,2442
11354,3463
11355,2907
11356,2149
11357,2335
11358,2938
11359,2384
11360,1424
11361,1425
11362,2141
11363,2053
11364,1382
11365,1473
11366,2310
11367,2403
11368,1650
11369,1473
11370,2225
11371,2490
11372,1783
11373,1442
11374,2112
11375,2559
11376,1938
11377,1454
11378,2000
11379,2614
11380,2121
11381,1519
11382,1926
11383,2647
11384,2307
11385,1614
11386,1834
11387,2624
11388,2475
11389,1726
11390,1767
11391,2582
11392,2651
11393,1895
11394,1734
11395,2491
11396,2765
11397,2064
11398,1746
11399,2427
11400,2896
11401,2243
11402,1773
11403,2343
11404,2987
11405,2445
11406,1845
11407,2255
11408,3014
11409,2647
11410,1955
11411,2195
11412,3007
11413,2825
11414,2066
11415,2114
11416,2943
11417,3003
11418,2211
11419,2082
11420,2865
11421,3168
11422,2361
11423,2031
11424,2704
11425,3188
11426,2432
11427,1926
11428,2455
11429,3061
11430,2463
11431,1838
11432,2230
11433,2935
11434,2507
11435,1798
11436,2033
11437,2816
11438,2610
11439,1853
11440,1905
11441,2701
11442,2708
11443,1933
11444,1820
11445,2597
11446,2822
11447,2064
11448,1761
11449,2466
11450,2908
11451,2238
11452,1779
11453,2365
11454,2960
11455,2391
11456,1812
11457,2268
11458,2992
11459,2559
11460,1869
11461,2142
11462,2942
11463,2721
11464,1961
11465,2041
11466,2861
11467,2848
11468,2066
11469,1969
11470,2770
11471,2976
11472,2183
11473,1886
11474,2624
11475,3067
11476,2326
11477,1873
11478,2483
11479,3107
11480,2469
11481,1877
11482,2352
11483,3119
11484,2623
11485,1919
11486,2218
11487,3037
11488,2766
11489,1986
11490,2096
11491,2934
11492,2896
11493,2082
11494,1989
11495,2803
11496,3008
11497,2215
11498,1943
11499,2689
11500,3117
11501,2343
11502,1908
11503,2553
11504,3199
11505,2513
11506,1919
11507,2397
11508,3164
11509,2655
11510,1955
11511,2288
11512,3152
11513,2826
11514,2030
11515,2160
11516,3031
11517,2960
11518,2121
11519,2064
11520,2911
11521,3115
11522,2267
11523,2007
11524,2771
11525,3197
11526,2387
11527,1967
11528,2625
11529,3292
11530,2559
11531,1986
11532,2487
11533,3275
11534,2705
11535,2007
11536,2342
11537,3214
11538,2860
11539,2078
11540,2223
11541,3129
11542,3030
11543,2176
11544,2119
11545,2960
11546,3133
11547,2294
11548,2090
11549,2899
11550,3386
11551,2512
11552,2089
11553,2753
11554,3453
11555,2667
11556,2091
11557,2624
11558,3491
11559,2833
11560,2094
11561,2389
11562,3234
11563,2850
11564,2070
11565,2219
11566,3066
11567,2930
11568,2107
11569,2077
11570,2907
11571,3030
11572,2195
11573,1974
11574,2753
11575,3120
11576,2307
11577,1893
11578,2559
11579,3140
11580,2429
11581,1867
11582,2384
11583,3056
11584,2496
11585,1906
11586,2441
11587,3794
11588,3782
11589,2961
11590,3251
11591,4095
11592,3822
11593,2610
11594,2389
11595,2999
11596,2877
11597,1975
11598,1798
11599,2650
11600,3056
11601,2291
11602,1913
11603,2599
11604,3140
11605,2402
11606,1860
11607,2417
11608,3142
11609,2549
11610,1879
11611,2269
11612,3061
11613,2663
11614,1904
11615,2129
11616,2973
11617,2802
11618,1990
11619,2011
11620,2863
11621,2928
11622,2105
11623,1927
11624,2725
11625,3024
11626,2224
11627,1857
11628,2559
11629,3115
11630,2384
11631,1859
11632,2423
11633,3107
11634,2512
11635,1872
11636,2295
11637,3105
11638,2686
11639,1935
11640,2176
11641,3030
11642,2833
11643,2026
11644,2073
11645,2938
11646,2992
11647,2159
11648,1993
11649,2819
11650,3136
11651,2305
11652,1954
11653,2681
11654,3215
11655,2423
11656,1899
11657,2479
11658,3166
11659,2517
11660,1856
11661,2246
11662,2966
11663,2506
11664,1741
11665,1965
11666,2750
11667,2507
11668,1693
11669,1739
11670,2553
11671,2541
11672,1714
11673,1571
11674,2368
11675,2583
11676,1793
11677,1471
11678,2198
11679,2621
11680,1909
11681,1415
11682,2027
11683,2615
11684,2039
11685,1430
11686,1889
11687,2608
11688,2181
11689,1456
11690,1745
11691,2549
11692,2315
11693,1519
11694,1616
11695,2450
11696,2435
11697,1633
11698,1519
11699,2313
11700,2501
11701,1733
11702,1425
11703,2160
11704,2559
11705,1854
11706,1383
11707,2005
11708,2559
11709,1980
11710,1365
11711,1831
11712,2538
11713,2105
11714,1379
11715,1673
11716,2448
11717,2199
11718,1424
11719,1527
11720,2353
11721,2310
11722,1503
11723,1410
11724,2223
11725,2389
11726,1607
11727,1322
11728,2075
11729,2451
11730,1734
11731,1275
11732,1903
11733,2446
11734,1846
11735,1246
11736,1732
11737,2415
11738,1949
11739,1243
11740,1565
11741,2364
11742,2111
11743,1335
11744,1461
11745,2285
11746,2221
11747,1420
11748,1357
11749,2171
11750,2317
11751,1520
11752,1264
11753,2025
11754,2374
11755,1648
11756,1222
11757,1875
11758,2407
11759,1785
11760,1205
11761,1727
11762,2405
11763,1929
11764,1230
11765,1572
11766,2341
11767,2047
11768,1281
11769,1436
11770,2262
11771,2170
11772,1357
11773,1323
11774,2160
11775,2275
11776,1469
11777,1231
11778,2003
11779,2351
11780,1635
11781,1246
11782,1936
11783,2478
11784,1858
11785,1296
11786,1810
11787,2474
11788,1991
11789,1318
11790,1694
11791,2471
11792,2142
11793,1343
11794,1470
11795,2254
11796,2135
11797,1335
11798,1317
11799,2128
11800,2215
11801,1418
11802,1205
11803,1963
11804,2256
11805,1505
11806,1119
11807,1808
11808,2299
11809,1655
11810,1104
11811,1653
11812,2295
11813,1793
11814,1105
11815,1468
11816,2193
11817,1841
11818,1174
11819,1535
11820,2650
11821,2843
11822,2257
11823,2304
11824,3038
11825,2941
11826,1957
11827,1497
11828,1987
11829,2082
11830,1279
11831,961
11832,1749
11833,2302
11834,1681
11835,1154
11836,1699
11837,2304
11838,1776
11839,1115
11840,1494
11841,2237
11842,1877
11843,1143
11844,1359
11845,2171
11846,2021
11847,1232
11848,1247
11849,2066
11850,2129
11851,1347
11852,1196
11853,1982
11854,2253
11855,1502
11856,1153
11857,1851
11858,2309
11859,1658
11860,1169
11861,1750
11862,2365
11863,1826
11864,1189
11865,1616
11866,2347
11867,1971
11868,1254
11869,1505
11870,2321
11871,2158
11872,1378
11873,1429
11874,2256
11875,2295
11876,1518
11877,1389
11878,2183
11879,2426
11880,1687
11881,1363
11882,2079
11883,2517
11884,1850
11885,1365
11886,1960
11887,2551
11888,2000
11889,1375
11890,1790
11891,2486
11892,2099
11893,1360
11894,1584
11895,2337
11896,2117
11897,1309
11898,1322
11899,2096
11900,2069
11901,1258
11902,1105
11903,1889
11904,2098
11905,1337
11906,1015
11907,1726
11908,2125
11909,1442
11910,976
11911,1589
11912,2166
11913,1595
11914,980
11915,1430
11916,2143
11917,1744
11918,1023
11919,1296
11920,2094
11921,1879
11922,1126
11923,1206
11924,2021
11925,2004
11926,1215
11927,1104
11928,1911
11929,2112
11930,1355
11931,1067
11932,1781
11933,2171
11934,1483
11935,1038
11936,1648
11937,2208
11938,1631
11939,1045
11940,1503
11941,2187
11942,1745
11943,1046
11944,1338
11945,2114
11946,1870
11947,1102
11948,1201
11949,2018
11950,1979
11951,1198
11952,1104
11953,1891
11954,2055
11955,1286
11956,1014
11957,1751
11958,2114
11959,1401
11960,955
11961,1587
11962,2125
11963,1523
11964,944
11965,1422
11966,2096
11967,1650
11968,971
11969,1282
11970,2035
