Sample_Index,ADC_Value
0,1723
1,1778
2,1703
3,1645
4,1725
5,1808
6,1751
7,1666
8,1708
9,1798
10,1772
11,1666
12,1679
13,1776
14,1787
15,1694
16,1691
17,1797
18,1825
19,1727
20,1695
21,1794
22,1836
23,1746
24,1703
25,1759
26,1818
27,1771
28,1707
29,1770
30,1843
31,1797
32,1707
33,1758
34,1839
35,1819
36,1735
37,1745
38,1861
39,1895
40,1840
41,1871
42,1983
43,1983
44,1862
45,1825
46,1934
47,2000
48,1973
49,1921
50,1985
51,1988
52,1873
53,1789
54,1872
55,1927
56,1835
57,1729
58,1795
59,1883
60,1846
61,1738
62,1747
63,1850
64,1829
65,1731
66,1761
67,1856
68,1861
69,1758
70,1735
71,1851
72,1881
73,1776
74,1691
75,1737
76,1779
77,1813
78,2014
79,2522
80,3305
81,4095
82,4095
83,4095
84,4095
85,3502
86,2631
87,2124
88,1929
89,1851
90,1776
91,1789
92,1893
93,1913
94,1831
95,1793
96,1870
97,1885
98,1804
99,1757
100,1856
101,1906
102,1823
103,1753
104,1838
105,1901
106,1853
107,1787
108,1858
109,1946
110,1882
111,1787
112,1846
113,1964
114,1939
115,1839
116,1857
117,1968
118,1968
119,1899
120,1890
121,1974
122,2019
123,1951
124,1915
125,1999
126,2064
127,2016
128,1965
129,2045
130,2133
131,2112
132,2047
133,2138
134,2218
135,2205
136,2128
137,2187
138,2324
139,2349
140,2287
141,2331
142,2475
143,2486
144,2407
145,2413
146,2559
147,2583
148,2478
149,2419
150,2494
151,2525
152,2397
153,2257
154,2258
155,2238
156,2096
157,1920
158,1888
159,1904
160,1811
161,1677
162,1658
163,1695
164,1648
165,1535
166,1524
167,1611
168,1597
169,1490
170,1462
171,1567
172,1585
173,1489
174,1456
175,1535
176,1597
177,1535
178,1463
179,1566
180,1631
181,1570
182,1479
183,1570
184,1654
185,1599
186,1498
187,1559
188,1680
189,1658
190,1535
191,1560
192,1682
193,1694
194,1593
195,1583
196,1689
197,1711
198,1616
199,1578
200,1692
201,1746
202,1641
203,1578
204,1680
205,1761
206,1679
207,1599
208,1651
209,1741
210,1708
211,1616
212,1649
213,1745
214,1719
215,1611
216,1630
217,1713
218,1712
219,1625
220,1615
221,1716
222,1744
223,1651
224,1609
225,1678
226,1721
227,1667
228,1622
229,1700
230,1745
231,1702
232,1635
233,1702
234,1777
235,1735
236,1648
237,1684
238,1765
239,1747
240,1669
241,1706
242,1777
243,1758
244,1661
245,1664
246,1773
247,1789
248,1693
249,1652
250,1739
251,1781
252,1723
253,1681
254,1778
255,1817
256,1750
257,1674
258,1744
259,1829
260,1783
261,1691
262,1743
263,1817
264,1782
265,1692
266,1722
267,1817
268,1818
269,1728
270,1728
271,1827
272,1848
273,1744
274,1715
275,1811
276,1807
277,1785
278,1729
279,1808
280,1825
281,1765
282,1710
283,1819
284,1910
285,1871
286,1799
287,1872
288,1963
289,1931
290,1835
291,1874
292,1973
293,1975
294,1886
295,1909
296,2019
297,1979
298,1842
299,1787
300,1849
301,1882
302,1814
303,1743
304,1804
305,1853
306,1769
307,1686
308,1744
309,1809
310,1775
311,1693
312,1735
313,1798
314,1769
315,1677
316,1707
317,1770
318,1780
319,1707
320,1695
321,1759
322,1722
323,1606
324,1687
325,2042
326,2544
327,3141
328,4021
329,4095
330,4095
331,3987
332,3152
333,2525
334,2106
335,1809
336,1684
337,1745
338,1808
339,1779
340,1706
341,1721
342,1797
343,1783
344,1698
345,1692
346,1762
347,1754
348,1661
349,1635
350,1738
351,1758
352,1682
353,1659
354,1761
355,1803
356,1728
357,1669
358,1739
359,1801
360,1729
361,1682
362,1742
363,1818
364,1776
365,1686
366,1744
367,1845
368,1821
369,1727
370,1747
371,1858
372,1853
373,1774
374,1774
375,1876
376,1919
377,1861
378,1823
379,1920
380,1984
381,1955
382,1911
383,1975
384,2077
385,2083
386,2032
387,2097
388,2190
389,2193
390,2151
391,2185
392,2267
393,2295
394,2224
395,2231
396,2281
397,2268
398,2164
399,2095
400,2091
401,2026
402,1874
403,1761
404,1755
405,1731
406,1611
407,1471
408,1447
409,1456
410,1389
411,1287
412,1285
413,1328
414,1296
415,1200
416,1233
417,1300
418,1280
419,1177
420,1194
421,1275
422,1269
423,1185
424,1186
425,1279
426,1297
427,1207
428,1168
429,1264
430,1314
431,1239
432,1173
433,1245
434,1315
435,1275
436,1211
437,1267
438,1318
439,1296
440,1217
441,1261
442,1329
443,1325
444,1253
445,1263
446,1322
447,1331
448,1270
449,1265
450,1328
451,1360
452,1303
453,1257
454,1303
455,1344
456,1307
457,1259
458,1323
459,1382
460,1335
461,1263
462,1311
463,1348
464,1337
465,1262
466,1313
467,1381
468,1360
469,1284
470,1311
471,1394
472,1360
473,1273
474,1280
475,1396
476,1421
477,1344
478,1287
479,1346
480,1379
481,1332
482,1285
483,1328
484,1381
485,1357
486,1299
487,1334
488,1394
489,1371
490,1306
491,1313
492,1358
493,1372
494,1331
495,1349
496,1389
497,1467
498,1344
499,1325
500,1378
501,1411
502,1354
503,1326
504,1394
505,1430
506,1407
507,1361
508,1421
509,1471
510,1417
511,1347
512,1399
513,1481
514,1450
515,1377
516,1413
517,1485
518,1467
519,1391
520,1407
521,1479
522,1466
523,1392
524,1384
525,1445
526,1468
527,1417
528,1382
529,1431
530,1498
531,1469
532,1424
533,1465
534,1498
535,1473
536,1409
537,1425
538,1484
539,1479
540,1443
541,1470
542,1529
543,1535
544,1488
545,1505
546,1591
547,1621
548,1597
549,1599
550,1650
551,1673
552,1638
553,1627
554,1714
555,1776
556,1726
557,1654
558,1678
559,1675
560,1621
561,1569
562,1630
563,1665
564,1616
565,1513
566,1524
567,1579
568,1583
569,1531
570,1559
571,1619
572,1607
573,1531
574,1509
575,1587
576,1630
577,1588
578,1555
579,1585
580,1617
581,1575
582,1484
583,1535
584,1742
585,2024
586,2463
587,3203
588,4095
589,4095
590,4095
591,3777
592,3035
593,2381
594,1841
595,1619
596,1639
597,1729
598,1729
599,1719
600,1744
601,1773
602,1705
603,1659
604,1702
605,1726
606,1687
607,1651
608,1712
609,1767
610,1732
611,1674
612,1735
613,1788
614,1781
615,1718
616,1749
617,1826
618,1814
619,1744
620,1755
621,1815
622,1837
623,1805
624,1808
625,1870
626,1910
627,1872
628,1838
629,1891
630,1937
631,1919
632,1885
633,1922
634,2000
635,2015
636,1987
637,2027
638,2091
639,2112
640,2091
641,2135
642,2221
643,2256
644,2224
645,2256
646,2343
647,2395
648,2363
649,2373
650,2469
651,2542
652,2517
653,2510
654,2559
655,2609
656,2550
657,2473
658,2494
659,2496
660,2385
661,2247
662,2208
663,2162
664,2073
665,1935
666,1872
667,1872
668,1822
669,1723
670,1660
671,1652
672,1670
673,1614
674,1599
675,1631
676,1675
677,1627
678,1584
679,1616
680,1649
681,1616
682,1585
683,1631
684,1672
685,1646
686,1607
687,1654
688,1697
689,1682
690,1622
691,1668
692,1724
693,1714
694,1661
695,1700
696,1755
697,1769
698,1721
699,1722
700,1775
701,1791
702,1762
703,1743
704,1771
705,1811
706,1791
707,1760
708,1804
709,1846
710,1816
711,1759
712,1787
713,1842
714,1839
715,1797
716,1840
717,1881
718,1868
719,1799
720,1833
721,1906
722,1905
723,1839
724,1849
725,1907
726,1922
727,1875
728,1849
729,1907
730,1939
731,1895
732,1842
733,1881
734,1923
735,1915
736,1864
737,1881
738,1938
739,1954
740,1904
741,1919
742,1957
743,1962
744,1903
745,1920
746,1970
747,1983
748,1917
749,1924
750,1974
751,2003
752,1961
753,1936
754,1994
755,2019
756,1963
757,1936
758,2021
759,2071
760,2013
761,1957
762,2021
763,2082
764,2045
765,1959
766,1981
767,2037
768,2039
769,1973
770,1986
771,2032
772,2073
773,2031
774,2017
775,2035
776,2068
777,2037
778,2014
779,2034
780,2071
781,2064
782,2032
783,2059
784,2091
785,2075
786,2037
787,2085
788,2123
789,2101
790,2037
791,2089
792,2128
793,2112
794,2047
795,2107
796,2151
797,2141
798,2069
799,2076
800,2147
801,2165
802,2099
803,2083
804,2141
805,2162
806,2118
807,2128
808,2211
809,2250
810,2226
811,2182
812,2203
813,2238
814,2237
815,2202
816,2251
817,2320
818,2306
819,2195
820,2130
821,2159
822,2176
823,2137
824,2126
825,2139
826,2135
827,2075
828,2055
829,2083
830,2096
831,2065
832,2055
833,2115
834,2127
835,2078
836,2032
837,2076
838,2115
839,2110
840,2059
841,2098
842,2123
843,2043
844,1936
845,2034
846,2311
847,2722
848,3335
849,4095
850,4095
851,4095
852,4095
853,4095
854,3930
855,2934
856,2263
857,1988
858,2024
859,2130
860,2138
861,2089
862,2115
863,2159
864,2113
865,2033
866,2074
867,2101
868,2081
869,2018
870,2032
871,2096
872,2103
873,2043
874,2055
875,2096
876,2110
877,2064
878,2061
879,2096
880,2116
881,2085
882,2087
883,2149
884,2181
885,2110
886,2054
887,2147
888,2197
889,2170
890,2123
891,2187
892,2240
893,2199
894,2148
895,2185
896,2273
897,2288
898,2226
899,2239
900,2303
901,2342
902,2320
903,2357
904,2405
905,2438
906,2413
907,2416
908,2503
909,2559
910,2559
911,2559
912,2635
913,2692
914,2688
915,2645
916,2663
917,2700
918,2673
919,2582
920,2559
921,2559
922,2470
923,2318
924,2251
925,2208
926,2121
927,1986
928,1920
929,1904
930,1865
931,1743
932,1681
933,1742
934,1740
935,1652
936,1606
937,1664
938,1681
939,1607
940,1535
941,1595
942,1653
943,1635
944,1584
945,1603
946,1638
947,1631
948,1567
949,1571
950,1606
951,1623
952,1584
953,1597
954,1646
955,1666
956,1616
957,1614
958,1678
959,1709
960,1642
961,1609
962,1680
963,1726
964,1667
965,1618
966,1680
967,1735
968,1690
969,1646
970,1714
971,1770
972,1730
973,1648
974,1684
975,1744
976,1725
977,1664
978,1683
979,1739
980,1617
981,1664
982,1675
983,1719
984,1726
985,1655
986,1634
987,1708
988,1735
989,1683
990,1647
991,1676
992,1721
993,1710
994,1680
995,1723
996,1746
997,1709
998,1652
999,1670
1000,1725
1001,1733
1002,1675
1003,1695
1004,1733
1005,1741
1006,1678
1007,1686
1008,1731
1009,1743
1010,1680
1011,1654
1012,1738
1013,1775
1014,1740
1015,1705
1016,1757
1017,1776
1018,1725
1019,1683
1020,1744
1021,1781
1022,1757
1023,1705
1024,1754
1025,1814
1026,1781
1027,1714
1028,1777
1029,1851
1030,1808
1031,1714
1032,1744
1033,1818
1034,1798
1035,1719
1036,1737
1037,1840
1038,1847
1039,1773
1040,1737
1041,1808
1042,1853
1043,1794
1044,1746
1045,1799
1046,1840
1047,1793
1048,1731
1049,1779
1050,1847
1051,1811
1052,1742
1053,1775
1054,1842
1055,1842
1056,1776
1057,1805
1058,1858
1059,1843
1060,1776
1061,1779
1062,1867
1063,1872
1064,1803
1065,1799
1066,1930
1067,1989
1068,1935
1069,1899
1070,1980
1071,2009
1072,1945
1073,1899
1074,1985
1075,2087
1076,2032
1077,1919
1078,1936
1079,1971
1080,1904
1081,1824
1082,1877
1083,1963
1084,1904
1085,1787
1086,1781
1087,1859
1088,1850
1089,1754
1090,1727
1091,1806
1092,1856
1093,1795
1094,1754
1095,1811
1096,1860
1097,1808
1098,1739
1099,1785
1100,1849
1101,1793
1102,1680
1103,1714
1104,1875
1105,2105
1106,2483
1107,3203
1108,4095
1109,4095
1110,4095
1111,4095
1112,3770
1113,2823
1114,2128
1115,1798
1116,1835
1117,1894
1118,1846
1119,1825
1120,1903
1121,1915
1122,1830
1123,1749
1124,1818
1125,1879
1126,1813
1127,1737
1128,1786
1129,1851
1130,1803
1131,1739
1132,1795
1133,1870
1134,1849
1135,1767
1136,1782
1137,1870
1138,1869
1139,1802
1140,1802
1141,1907
1142,1914
1143,1823
1144,1808
1145,1921
1146,1965
1147,1903
1148,1853
1149,1959
1150,2031
1151,1957
1152,1897
1153,1983
1154,2073
1155,2015
1156,1931
1157,2030
1158,2147
1159,2118
1160,2037
1161,2095
1162,2214
1163,2231
1164,2171
1165,2203
1166,2308
1167,2355
1168,2320
1169,2320
1170,2418
1171,2473
1172,2422
1173,2383
1174,2485
1175,2545
1176,2468
1177,2385
1178,2418
1179,2432
1180,2320
1181,2163
1182,2145
1183,2149
1184,2007
1185,1822
1186,1786
1187,1805
1188,1721
1189,1587
1190,1567
1191,1665
1192,1646
1193,1511
1194,1454
1195,1557
1196,1566
1197,1456
1198,1410
1199,1506
1200,1572
1201,1474
1202,1407
1203,1515
1204,1584
1205,1509
1206,1415
1207,1478
1208,1565
1209,1500
1210,1408
1211,1457
1212,1575
1213,1535
1214,1456
1215,1479
1216,1595
1217,1590
1218,1489
1219,1463
1220,1569
1221,1616
1222,1535
1223,1490
1224,1586
1225,1623
1226,1554
1227,1471
1228,1593
1229,1654
1230,1600
1231,1505
1232,1578
1233,1666
1234,1616
1235,1531
1236,1580
1237,1667
1238,1648
1239,1572
1240,1571
1241,1682
1242,1666
1243,1535
1244,1535
1245,1658
1246,1686
1247,1597
1248,1535
1249,1654
1250,1695
1251,1609
1252,1535
1253,1645
1254,1718
1255,1631
1256,1530
1257,1611
1258,1686
1259,1647
1260,1535
1261,1599
1262,1686
1263,1680
1264,1589
1265,1589
1266,1663
1267,1664
1268,1567
1269,1575
1270,1687
1271,1705
1272,1619
1273,1586
1274,1686
1275,1729
1276,1632
1277,1570
1278,1657
1279,1710
1280,1665
1281,1600
1282,1664
1283,1725
1284,1697
1285,1611
1286,1659
1287,1738
1288,1711
1289,1629
1290,1651
1291,1753
1292,1735
1293,1640
1294,1637
1295,1733
1296,1747
1297,1664
1298,1637
1299,1712
1300,1760
1301,1689
1302,1639
1303,1749
1304,1798
1305,1732
1306,1622
1307,1713
1308,1803
1309,1648
1310,1635
1311,1710
1312,1813
1313,1760
1314,1660
1315,1693
1316,1813
1317,1800
1318,1687
1319,1699
1320,1812
1321,1839
1322,1763
1323,1758
1324,1879
1325,1925
1326,1837
1327,1782
1328,1890
1329,1961
1330,1917
1331,1849
1332,1900
1333,1930
1334,1836
1335,1726
1336,1787
1337,1907
1338,1849
1339,1711
1340,1719
1341,1821
1342,1802
1343,1680
1344,1670
1345,1776
1346,1789
1347,1698
1348,1666
1349,1770
1350,1811
1351,1735
1352,1679
1353,1759
1354,1807
1355,1728
1356,1635
1357,1668
1358,1710
1359,1729
1360,1867
1361,2338
1362,3024
1363,3887
1364,4095
1365,4095
1366,4095
1367,3504
1368,2643
1369,2127
1370,1939
1371,1854
1372,1749
1373,1733
1374,1836
1375,1858
1376,1776
1377,1723
1378,1813
1379,1865
1380,1777
1381,1709
1382,1771
1383,1853
1384,1803
1385,1709
1386,1754
1387,1843
1388,1815
1389,1719
1390,1778
1391,1875
1392,1867
1393,1770
1394,1776
1395,1890
1396,1907
1397,1825
1398,1803
1399,1904
1400,1950
1401,1872
1402,1839
1403,1956
1404,2000
1405,1917
1406,1860
1407,1970
1408,2067
1409,1997
1410,1914
1411,2011
1412,2139
1413,2096
1414,2001
1415,2065
1416,2188
1417,2194
1418,2122
1419,2144
1420,2273
1421,2330
1422,2282
1423,2288
1424,2405
1425,2448
1426,2381
1427,2357
1428,2465
1429,2543
1430,2497
1431,2429
1432,2471
1433,2512
1434,2419
1435,2269
1436,2256
1437,2251
1438,2117
1439,1944
1440,1910
1441,1942
1442,1863
1443,1703
1444,1674
1445,1746
1446,1699
1447,1570
1448,1523
1449,1621
1450,1628
1451,1511
1452,1457
1453,1562
1454,1628
1455,1535
1456,1462
1457,1535
1458,1613
1459,1535
1460,1463
1461,1533
1462,1616
1463,1581
1464,1493
1465,1554
1466,1661
1467,1638
1468,1526
1469,1554
1470,1654
1471,1647
1472,1559
1473,1581
1474,1709
1475,1719
1476,1617
1477,1577
1478,1695
1479,1712
1480,1626
1481,1570
1482,1659
1483,1801
1484,1671
1485,1601
1486,1680
1487,1751
1488,1687
1489,1607
1490,1661
1491,1744
1492,1715
1493,1616
1494,1620
1495,1727
1496,1718
1497,1647
1498,1645
1499,1744
1500,1767
1501,1679
1502,1634
1503,1751
1504,1794
1505,1686
1506,1615
1507,1712
1508,1783
1509,1706
1510,1607
1511,1692
1512,1773
1513,1723
1514,1627
1515,1664
1516,1767
1517,1753
1518,1675
1519,1684
1520,1773
1521,1770
1522,1682
1523,1674
1524,1779
1525,1792
1526,1695
1527,1664
1528,1780
1529,1808
1530,1724
1531,1676
1532,1776
1533,1834
1534,1750
1535,1671
1536,1741
1537,1831
1538,1776
1539,1671
1540,1726
1541,1838
1542,1819
1543,1725
1544,1735
1545,1839
1546,1817
1547,1709
1548,1712
1549,1811
1550,1822
1551,1734
1552,1719
1553,1795
1554,1829
1555,1771
1556,1743
1557,1826
1558,1859
1559,1786
1560,1725
1561,1798
1562,1872
1563,1826
1564,1744
1565,1798
1566,1874
1567,1847
1568,1758
1569,1787
1570,1872
1571,1856
1572,1749
1573,1753
1574,1859
1575,1874
1576,1812
1577,1829
1578,1968
1579,2006
1580,1923
1581,1863
1582,1962
1583,2011
1584,1942
1585,1879
1586,2009
1587,2106
1588,2022
1589,1871
1590,1878
1591,1936
1592,1909
1593,1818
1594,1840
1595,1930
1596,1879
1597,1759
1598,1758
1599,1866
1600,1862
1601,1751
1602,1714
1603,1841
1604,1890
1605,1792
1606,1723
1607,1818
1608,1891
1609,1817
1610,1742
1611,1821
1612,1872
1613,1766
1614,1626
1615,1745
1616,2056
1617,2413
1618,2906
1619,3907
1620,4095
1621,4095
1622,4095
1623,3989
1624,3154
1625,2413
1626,1882
1627,1712
1628,1823
1629,1905
1630,1933
1631,1833
1632,1888
1633,1925
1634,1840
1635,1745
1636,1811
1637,1881
1638,1830
1639,1744
1640,1819
1641,1898
1642,1871
1643,1785
1644,1830
1645,1911
1646,1886
1647,1787
1648,1805
1649,1904
1650,1921
1651,1839
1652,1826
1653,1926
1654,1968
1655,1901
1656,1859
1657,1959
1658,2005
1659,1936
1660,1870
1661,1949
1662,2046
1663,2009
1664,1946
1665,2020
1666,2111
1667,2086
1668,2016
1669,2079
1670,2169
1671,2155
1672,2101
1673,2161
1674,2300
1675,2314
1676,2242
1677,2254
1678,2384
1679,2441
1680,2385
1681,2353
1682,2465
1683,2559
1684,2503
1685,2458
1686,2559
1687,2634
1688,2534
1689,2403
1690,2398
1691,2415
1692,2320
1693,2157
1694,2127
1695,2117
1696,1990
1697,1813
1698,1774
1699,1821
1700,1746
1701,1597
1702,1555
1703,1645
1704,1633
1705,1532
1706,1472
1707,1535
1708,1586
1709,1515
1710,1438
1711,1518
1712,1579
1713,1517
1714,1442
1715,1505
1716,1577
1717,1527
1718,1444
1719,1481
1720,1580
1721,1563
1722,1473
1723,1511
1724,1639
1725,1622
1726,1518
1727,1518
1728,1647
1729,1663
1730,1571
1731,1535
1732,1664
1733,1701
1734,1609
1735,1535
1736,1635
1737,1695
1738,1617
1739,1533
1740,1626
1741,1711
1742,1653
1743,1555
1744,1622
1745,1770
1746,1679
1747,1581
1748,1590
1749,1695
1750,1711
1751,1613
1752,1602
1753,1702
1754,1721
1755,1642
1756,1600
1757,1681
1758,1725
1759,1658
1760,1602
1761,1673
1762,1729
1763,1681
1764,1616
1765,1682
1766,1754
1767,1710
1768,1623
1769,1682
1770,1749
1771,1710
1772,1617
1773,1637
1774,1757
1775,1747
1776,1634
1777,1643
1778,1770
1779,1787
1780,1687
1781,1648
1782,1762
1783,1793
1784,1700
1785,1635
1786,1728
1787,1808
1788,1729
1789,1655
1790,1729
1791,1805
1792,1758
1793,1674
1794,1733
1795,1822
1796,1776
1797,1680
1798,1716
1799,1803
1800,1788
1801,1706
1802,1709
1803,1787
1804,1795
1805,1712
1806,1682
1807,1775
1808,1826
1809,1757
1810,1713
1811,1802
1812,1851
1813,1790
1814,1717
1815,1793
1816,1866
1817,1815
1818,1725
1819,1798
1820,1857
1821,1823
1822,1739
1823,1790
1824,1902
1825,1873
1826,1766
1827,1767
1828,1882
1829,1874
1830,1774
1831,1757
1832,1879
1833,1933
1834,1869
1835,1840
1836,1947
1837,2017
1838,1936
1839,1859
1840,1937
1841,2016
1842,1984
1843,1938
1844,2000
1845,2039
1846,1957
1847,1835
1848,1854
1849,1950
1850,1935
1851,1813
1852,1777
1853,1861
1854,1865
1855,1761
1856,1738
1857,1858
1858,1883
1859,1791
1860,1726
1861,1827
1862,1879
1863,1792
1864,1718
1865,1807
1866,1877
1867,1786
1868,1734
1869,1770
1870,1808
1871,1725
1872,1703
1873,1967
1874,2477
1875,3125
1876,4016
1877,4095
1878,4095
1879,4095
1880,3778
1881,2890
1882,2311
1883,1937
1884,1731
1885,1714
1886,1859
1887,1943
1888,1886
1889,1811
1890,1891
1891,1936
1892,1845
1893,1741
1894,1802
1895,1881
1896,1836
1897,1734
1898,1787
1899,1887
1900,1871
1901,1776
1902,1799
1903,1923
1904,1916
1905,1808
1906,1791
1907,1894
1908,1926
1909,1843
1910,1809
1911,1895
1912,1933
1913,1876
1914,1842
1915,1936
1916,2002
1917,1952
1918,1885
1919,1943
1920,2021
1921,2001
1922,1946
1923,1986
1924,2073
1925,2087
1926,2027
1927,2064
1928,2173
1929,2180
1930,2119
1931,2156
1932,2288
1933,2334
1934,2286
1935,2263
1936,2402
1937,2485
1938,2431
1939,2385
1940,2493
1941,2559
1942,2507
1943,2431
1944,2470
1945,2525
1946,2470
1947,2326
1948,2309
1949,2314
1950,2193
1951,2000
1952,1927
1953,1948
1954,1902
1955,1761
1956,1663
1957,1678
1958,1645
1959,1535
1960,1507
1961,1579
1962,1594
1963,1515
1964,1456
1965,1535
1966,1584
1967,1489
1968,1423
1969,1505
1970,1586
1971,1525
1972,1413
1973,1472
1974,1567
1975,1535
1976,1456
1977,1482
1978,1586
1979,1577
1980,1475
1981,1474
1982,1575
1983,1607
1984,1524
1985,1509
1986,1589
1987,1631
1988,1579
1989,1523
1990,1599
1991,1648
1992,1597
1993,1535
1994,1621
1995,1682
1996,1632
1997,1555
1998,1619
1999,1698
2000,1666
2001,1565
2002,1590
2003,1701
2004,1675
2005,1577
2006,1586
2007,1712
2008,1727
2009,1615
2010,1581
2011,1689
2012,1731
2013,1650
2014,1579
2015,1661
2016,1727
2017,1649
2018,1587
2019,1649
2020,1738
2021,1686
2022,1590
2023,1620
2024,1691
2025,1665
2026,1588
2027,1605
2028,1703
2029,1708
2030,1619
2031,1618
2032,1712
2033,1718
2034,1629
2035,1625
2036,1753
2037,1776
2038,1661
2039,1613
2040,1743
2041,1808
2042,1723
2043,1631
2044,1692
2045,1759
2046,1703
2047,1626
2048,1648
2049,1717
2050,1714
2051,1643
2052,1677
2053,1754
2054,1753
2055,1678
2056,1693
2057,1789
2058,1781
2059,1677
2060,1659
2061,1762
2062,1792
2063,1712
2064,1685
2065,1777
2066,1809
2067,1726
2068,1649
2069,1755
2070,1853
2071,1771
2072,1659
2073,1744
2074,1827
2075,1778
2076,1698
2077,1744
2078,1823
2079,1811
2080,1723
2081,1760
2082,1888
2083,1919
2084,1840
2085,1791
2086,1893
2087,1945
2088,1890
2089,1858
2090,1963
2091,2001
2092,1891
2093,1773
2094,1813
2095,1867
2096,1807
2097,1726
2098,1797
2099,1872
2100,1808
2101,1697
2102,1725
2103,1817
2104,1788
2105,1671
2106,1707
2107,1813
2108,1810
2109,1711
2110,1682
2111,1758
2112,1783
2113,1742
2114,1708
2115,1771
2116,1778
2117,1655
2118,1580
2119,1775
2120,2157
2121,2613
2122,3216
2123,4095
2124,4095
2125,4095
2126,3957
2127,3247
2128,2623
2129,2083
2130,1737
2131,1712
2132,1862
2133,1902
2134,1811
2135,1790
2136,1886
2137,1876
2138,1787
2139,1714
2140,1786
2141,1840
2142,1762
2143,1702
2144,1765
2145,1840
2146,1794
2147,1719
2148,1762
2149,1856
2150,1831
2151,1738
2152,1781
2153,1872
2154,1863
2155,1776
2156,1810
2157,1919
2158,1922
2159,1838
2160,1841
2161,1939
2162,1968
2163,1885
2164,1858
2165,1967
2166,1995
2167,1924
2168,1883
2169,1968
2170,2034
2171,2001
2172,1950
2173,2025
2174,2140
2175,2119
2176,2053
2177,2107
2178,2219
2179,2242
2180,2186
2181,2240
2182,2369
2183,2393
2184,2307
2185,2318
2186,2438
2187,2458
2188,2382
2189,2361
2190,2483
2191,2513
2192,2394
2193,2294
2194,2320
2195,2299
2196,2128
2197,1959
2198,1955
2199,1972
2200,1845
2201,1685
2202,1674
2203,1705
2204,1623
2205,1488
2206,1461
2207,1523
2208,1521
2209,1415
2210,1378
2211,1429
2212,1425
2213,1405
2214,1371
2215,1442
2216,1477
2217,1414
2218,1365
2219,1441
2220,1501
2221,1441
2222,1370
2223,1439
2224,1529
2225,1458
2226,1364
2227,1450
2228,1554
2229,1514
2230,1419
2231,1450
2232,1535
2233,1531
2234,1450
2235,1457
2236,1576
2237,1567
2238,1470
2239,1451
2240,1567
2241,1593
2242,1499
2243,1429
2244,1529
2245,1595
2246,1520
2247,1446
2248,1527
2249,1615
2250,1564
2251,1457
2252,1513
2253,1622
2254,1582
2255,1462
2256,1493
2257,1605
2258,1568
2259,1437
2260,1447
2261,1579
2262,1583
2263,1469
2264,1456
2265,1575
2266,1606
2267,1468
2268,1440
2269,1535
2270,1593
2271,1502
2272,1414
2273,1481
2274,1565
2275,1521
2276,1459
2277,1521
2278,1600
2279,1533
2280,1442
2281,1488
2282,1579
2283,1535
2284,1447
2285,1449
2286,1535
2287,1535
2288,1461
2289,1437
2290,1535
2291,1594
2292,1488
2293,1435
2294,1521
2295,1575
2296,1511
2297,1452
2298,1527
2299,1600
2300,1535
2301,1434
2302,1497
2303,1598
2304,1577
2305,1480
2306,1507
2307,1590
2308,1561
2309,1471
2310,1492
2311,1600
2312,1583
2313,1467
2314,1446
2315,1575
2316,1609
2317,1535
2318,1520
2319,1660
2320,1717
2321,1645
2322,1570
2323,1627
2324,1694
2325,1653
2326,1605
2327,1726
2328,1827
2329,1751
2330,1611
2331,1623
2332,1683
2333,1631
2334,1520
2335,1535
2336,1648
2337,1631
2338,1507
2339,1477
2340,1583
2341,1593
2342,1487
2343,1450
2344,1566
2345,1612
2346,1525
2347,1446
2348,1535
2349,1611
2350,1535
2351,1472
2352,1520
2353,1579
2354,1488
2355,1362
2356,1463
2357,1741
2358,2082
2359,2544
2360,3237
2361,4095
2362,4095
2363,3626
2364,2976
2365,2502
2366,2064
2367,1718
2368,1581
2369,1653
2370,1665
2371,1579
2372,1530
2373,1630
2374,1680
2375,1602
2376,1503
2377,1580
2378,1659
2379,1602
2380,1508
2381,1569
2382,1663
2383,1623
2384,1507
2385,1522
2386,1631
2387,1642
2388,1559
2389,1527
2390,1623
2391,1651
2392,1594
2393,1559
2394,1649
2395,1701
2396,1633
2397,1580
2398,1653
2399,1723
2400,1671
2401,1615
2402,1666
2403,1722
2404,1707
2405,1661
2406,1714
2407,1776
2408,1779
2409,1726
2410,1774
2411,1871
2412,1872
2413,1805
2414,1828
2415,1945
2416,1989
2417,1943
2418,1946
2419,2062
2420,2111
2421,2064
2422,2041
2423,2135
2424,2192
2425,2170
2426,2124
2427,2192
2428,2253
2429,2178
2430,2067
2431,2063
2432,2064
2433,1961
2434,1797
2435,1749
2436,1749
2437,1672
2438,1501
2439,1411
2440,1456
2441,1429
2442,1317
2443,1255
2444,1290
2445,1315
2446,1259
2447,1191
2448,1235
2449,1290
2450,1247
2451,1198
2452,1263
2453,1299
2454,1239
2455,1165
2456,1238
2457,1341
2458,1306
2459,1210
2460,1230
2461,1335
2462,1338
2463,1245
2464,1247
2465,1344
2466,1358
2467,1298
2468,1289
2469,1405
2470,1431
2471,1360
2472,1307
2473,1381
2474,1437
2475,1388
2476,1328
2477,1411
2478,1500
2479,1471
2480,1392
2481,1418
2482,1482
2483,1456
2484,1375
2485,1407
2486,1479
2487,1479
2488,1419
2489,1424
2490,1498
2491,1527
2492,1456
2493,1428
2494,1515
2495,1571
2496,1483
2497,1425
2498,1504
2499,1562
2500,1507
2501,1456
2502,1535
2503,1623
2504,1557
2505,1456
2506,1525
2507,1620
2508,1575
2509,1481
2510,1535
2511,1648
2512,1633
2513,1495
2514,1535
2515,1647
2516,1643
2517,1566
2518,1566
2519,1662
2520,1677
2521,1596
2522,1535
2523,1633
2524,1687
2525,1631
2526,1573
2527,1653
2528,1713
2529,1670
2530,1604
2531,1671
2532,1735
2533,1681
2534,1607
2535,1633
2536,1705
2537,1703
2538,1646
2539,1651
2540,1718
2541,1728
2542,1654
2543,1648
2544,1717
2545,1731
2546,1687
2547,1665
2548,1744
2549,1791
2550,1748
2551,1697
2552,1773
2553,1843
2554,1854
2555,1815
2556,1854
2557,1917
2558,1906
2559,1840
2560,1874
2561,1938
2562,1968
2563,1911
2564,1890
2565,1925
2566,1902
2567,1807
2568,1770
2569,1846
2570,1872
2571,1808
2572,1752
2573,1814
2574,1830
2575,1755
2576,1695
2577,1777
2578,1836
2579,1793
2580,1729
2581,1783
2582,1845
2583,1817
2584,1753
2585,1798
2586,1872
2587,1840
2588,1744
2589,1724
2590,1776
2591,1845
2592,1970
2593,2366
2594,3068
2595,4095
2596,4095
2597,4095
2598,4095
2599,4017
2600,3034
2601,2317
2602,1963
2603,1866
2604,1856
2605,1838
2606,1904
2607,1978
2608,1934
2609,1838
2610,1853
2611,1905
2612,1889
2613,1808
2614,1823
2615,1901
2616,1920
2617,1847
2618,1828
2619,1878
2620,1911
2621,1866
2622,1825
2623,1893
2624,1962
2625,1941
2626,1892
2627,1936
2628,1981
2629,1952
2630,1909
2631,1978
2632,2043
2633,2018
2634,1967
2635,2028
2636,2114
2637,2090
2638,2004
2639,2045
2640,2160
2641,2169
2642,2096
2643,2089
2644,2179
2645,2233
2646,2192
2647,2180
2648,2261
2649,2320
2650,2315
2651,2300
2652,2374
2653,2469
2654,2466
2655,2422
2656,2479
2657,2559
2658,2599
2659,2559
2660,2597
2661,2651
2662,2659
2663,2603
2664,2585
2665,2604
2666,2545
2667,2401
2668,2320
2669,2320
2670,2253
2671,2103
2672,1985
2673,1993
2674,1958
2675,1840
2676,1734
2677,1778
2678,1818
2679,1758
2680,1665
2681,1709
2682,1750
2683,1701
2684,1622
2685,1666
2686,1722
2687,1708
2688,1647
2689,1665
2690,1744
2691,1744
2692,1661
2693,1664
2694,1770
2695,1777
2696,1701
2697,1665
2698,1750
2699,1787
2700,1717
2701,1681
2702,1771
2703,1795
2704,1806
2705,1738
2706,1777
2707,1847
2708,1826
2709,1763
2710,1795
2711,1856
2712,1835
2713,1767
2714,1792
2715,1870
2716,1894
2717,1834
2718,1798
2719,1847
2720,1887
2721,1846
2722,1819
2723,1887
2724,1920
2725,1862
2726,1819
2727,1878
2728,1934
2729,1895
2730,1837
2731,1887
2732,1934
2733,1900
2734,1839
2735,1893
2736,1955
2737,1935
2738,1854
2739,1872
2740,1942
2741,1949
2742,1884
2743,1885
2744,1963
2745,1968
2746,1889
2747,1866
2748,1957
2749,1985
2750,1915
2751,1868
2752,1948
2753,1993
2754,1936
2755,1872
2756,1931
2757,2003
2758,1968
2759,1891
2760,1931
2761,2005
2762,1989
2763,1904
2764,1920
2765,1984
2766,1996
2767,1936
2768,1931
2769,2002
2770,2013
2771,1958
2772,1922
2773,1972
2774,2005
2775,1978
2776,1945
2777,1989
2778,2032
2779,2003
2780,1948
2781,1971
2782,2029
2783,2009
2784,1945
2785,1983
2786,2059
2787,2035
2788,1946
2789,1978
2790,2080
2791,2059
2792,1963
2793,1968
2794,2047
2795,2078
2796,1999
2797,1985
2798,2078
2799,2085
2800,2000
2801,1953
2802,2061
2803,2139
2804,2109
2805,2062
2806,2160
2807,2229
2808,2160
2809,2059
2810,2116
2811,2229
2812,2223
2813,2143
2814,2149
2815,2179
2816,2128
2817,2010
2818,1999
2819,2091
2820,2089
2821,1985
2822,1939
2823,1998
2824,2021
2825,1957
2826,1913
2827,1982
2828,2027
2829,1975
2830,1911
2831,1980
2832,2035
2833,1994
2834,1911
2835,1978
2836,2039
2837,1989
2838,1898
2839,1905
2840,1941
2841,1968
2842,2059
2843,2423
2844,3088
2845,4095
2846,4095
2847,4095
2848,4095
2849,4095
2850,3794
2851,2800
2852,2230
2853,1970
2854,1882
2855,1894
2856,2021
2857,2123
2858,2080
2859,1966
2860,1968
2861,2006
2862,1977
2863,1899
2864,1925
2865,1981
2866,1968
2867,1889
2868,1924
2869,2017
2870,2023
2871,1947
2872,1930
2873,1994
2874,2020
2875,1968
2876,1936
2877,2018
2878,2074
2879,2014
2880,1957
2881,2026
2882,2098
2883,2047
2884,1968
2885,2043
2886,2114
2887,2091
2888,2019
2889,2090
2890,2182
2891,2175
2892,2087
2893,2113
2894,2222
2895,2241
2896,2167
2897,2167
2898,2258
2899,2320
2900,2295
2901,2300
2902,2368
2903,2431
2904,2417
2905,2407
2906,2481
2907,2559
2908,2559
2909,2523
2910,2559
2911,2651
2912,2643
2913,2559
2914,2587
2915,2615
2916,2551
2917,2400
2918,2320
2919,2314
2920,2227
2921,2067
2922,1971
2923,1984
2924,1929
2925,1797
2926,1722
2927,1754
2928,1754
2929,1655
2930,1583
2931,1648
2932,1685
2933,1615
2934,1533
2935,1604
2936,1671
2937,1616
2938,1520
2939,1574
2940,1664
2941,1641
2942,1532
2943,1535
2944,1617
2945,1636
2946,1563
2947,1535
2948,1607
2949,1647
2950,1598
2951,1577
2952,1630
2953,1662
2954,1606
2955,1565
2956,1642
2957,1693
2958,1678
2959,1610
2960,1652
2961,1707
2962,1680
2963,1607
2964,1661
2965,1730
2966,1714
2967,1629
2968,1671
2969,1772
2970,1757
2971,1655
2972,1654
2973,1730
2974,1745
2975,1671
2976,1643
2977,1719
2978,1730
2979,1666
2980,1627
2981,1719
2982,1785
2983,1723
2984,1641
2985,1683
2986,1743
2987,1715
2988,1637
2989,1659
2990,1734
2991,1721
2992,1643
2993,1670
2994,1744
2995,1750
2996,1674
2997,1647
2998,1713
2999,1744
3000,1683
3001,1660
3002,1753
3003,1779
3004,1722
