Sample_Index,ADC_Value
0,1782
1,1662
2,1798
3,1954
4,1830
5,1664
6,1746
7,1938
8,1863
9,1695
10,1747
11,1943
12,1898
13,1695
14,1693
15,1906
16,1935
17,1744
18,1692
19,1878
20,1941
21,1770
22,1674
23,1839
24,1961
25,1840
26,1742
27,1900
28,2079
29,1963
30,1789
31,1861
32,2061
33,1983
34,1821
35,1894
36,2110
37,2033
38,1783
39,1737
40,1926
41,1957
42,1770
43,1695
44,1872
45,1950
46,1773
47,1658
48,1815
49,1935
50,1776
51,1645
52,1773
53,1939
54,1829
55,1666
56,1749
57,1931
58,1856
59,1663
60,1670
61,1835
62,1827
63,1763
64,1975
65,2480
66,2816
67,2790
68,2691
69,2704
70,2631
71,2271
72,1910
73,1823
74,1808
75,1647
76,1574
77,1778
78,1990
79,1906
80,1753
81,1835
82,2000
83,1917
84,1724
85,1760
86,1961
87,1940
88,1757
89,1751
90,1957
91,1972
92,1791
93,1739
94,1922
95,2000
96,1823
97,1729
98,1904
99,2042
100,1902
101,1760
102,1877
103,2044
104,1935
105,1762
106,1842
107,2041
108,1971
109,1797
110,1850
111,2071
112,2058
113,1872
114,1861
115,2063
116,2091
117,1909
118,1863
119,2073
120,2155
121,1973
122,1875
123,2061
124,2205
125,2075
126,1929
127,2053
128,2219
129,2119
130,1961
131,2043
132,2235
133,2167
134,1968
135,1989
136,2189
137,2149
138,1923
139,1873
140,2043
141,2042
142,1829
143,1738
144,1902
145,1957
146,1762
147,1649
148,1806
149,1931
150,1773
151,1611
152,1724
153,1883
154,1763
155,1593
156,1674
157,1869
158,1803
159,1618
160,1646
161,1839
162,1823
163,1648
164,1646
165,1845
166,1874
167,1686
168,1616
169,1795
170,1895
171,1730
172,1635
173,1793
174,1925
175,1777
176,1644
177,1757
178,1924
179,1818
180,1659
181,1742
182,1929
183,1861
184,1669
185,1690
186,1882
187,1861
188,1685
189,1669
190,1856
191,1888
192,1709
193,1648
194,1826
195,1911
196,1739
197,1639
198,1787
199,1910
200,1778
201,1632
202,1747
203,1921
204,1818
205,1639
206,1699
207,1883
208,1829
209,1653
210,1680
211,1867
212,1863
213,1680
214,1657
215,1846
216,1883
217,1701
218,1632
219,1809
220,1898
221,1737
222,1636
223,1782
224,1911
225,1788
226,1651
227,1767
228,1930
229,1823
230,1647
231,1710
232,1898
233,1847
234,1676
235,1702
236,1898
237,1879
238,1701
239,1684
240,1872
241,1904
242,1733
243,1665
244,1838
245,1935
246,1779
247,1664
248,1793
249,1931
250,1803
251,1673
252,1794
253,1981
254,1911
255,1780
256,1867
257,2042
258,1983
259,1808
260,1827
261,2026
262,2044
263,1867
264,1801
265,1931
266,1933
267,1751
268,1680
269,1855
270,1936
271,1768
272,1648
273,1792
274,1915
275,1786
276,1647
277,1744
278,1917
279,1833
280,1666
281,1717
282,1902
283,1853
284,1685
285,1702
286,1875
287,1844
288,1634
289,1602
290,1881
291,2128
292,2256
293,2483
294,2883
295,3054
296,2714
297,2388
298,2311
299,2203
300,1861
301,1575
302,1614
303,1808
304,1790
305,1691
306,1783
307,1979
308,1926
309,1742
310,1744
311,1921
312,1920
313,1759
314,1723
315,1904
316,1953
317,1791
318,1714
319,1874
320,1968
321,1822
322,1722
323,1856
324,1996
325,1883
326,1751
327,1852
328,2010
329,1924
330,1772
331,1830
332,2011
333,1975
334,1808
335,1807
336,1993
337,2004
338,1850
339,1824
340,2021
341,2075
342,1895
343,1818
344,1974
345,2095
346,1958
347,1861
348,1991
349,2143
350,2035
351,1901
352,1993
353,2160
354,2086
355,1933
356,1988
357,2164
358,2124
359,1963
360,1977
361,2158
362,2163
363,1976
364,1909
365,2058
366,2078
367,1885
368,1779
369,1906
370,1970
371,1803
372,1665
373,1773
374,1888
375,1759
376,1606
377,1689
378,1843
379,1771
380,1604
381,1647
382,1814
383,1785
384,1618
385,1623
386,1808
387,1807
388,1631
389,1603
390,1778
391,1833
392,1671
393,1597
394,1753
395,1858
396,1738
397,1623
398,1751
399,1886
400,1776
401,1638
402,1718
403,1890
404,1826
405,1664
406,1705
407,1885
408,1851
409,1679
410,1679
411,1859
412,1877
413,1713
414,1667
415,1834
416,1893
417,1734
418,1653
419,1797
420,1903
421,1762
422,1643
423,1760
424,1892
425,1792
426,1643
427,1724
428,1879
429,1796
430,1646
431,1699
432,1875
433,1833
434,1661
435,1665
436,1839
437,1853
438,1698
439,1670
440,1833
441,1874
442,1722
443,1648
444,1805
445,1903
446,1759
447,1643
448,1767
449,1901
450,1789
451,1648
452,1743
453,1905
454,1838
455,1675
456,1712
457,1879
458,1852
459,1685
460,1675
461,1851
462,1868
463,1712
464,1679
465,1841
466,1890
467,1733
468,1660
469,1808
470,1901
471,1762
472,1648
473,1776
474,1908
475,1804
476,1671
477,1759
478,1919
479,1843
480,1695
481,1730
482,1902
483,1872
484,1714
485,1744
486,1953
487,1984
488,1842
489,1813
490,1971
491,2021
492,1853
493,1773
494,1936
495,2073
496,1943
497,1781
498,1830
499,1926
500,1823
501,1696
502,1776
503,1930
504,1857
505,1695
506,1728
507,1898
508,1862
509,1677
510,1666
511,1844
512,1863
513,1711
514,1664
515,1827
516,1898
517,1753
518,1658
519,1791
520,1865
521,1700
522,1615
523,1862
524,2245
525,2459
526,2630
527,2867
528,3005
529,2733
530,2384
531,2171
532,2032
533,1768
534,1499
535,1521
536,1789
537,1894
538,1790
539,1767
540,1921
541,1970
542,1829
543,1739
544,1861
545,1963
546,1826
547,1730
548,1841
549,1982
550,1872
551,1728
552,1803
553,1965
554,1904
555,1744
556,1777
557,1953
558,1936
559,1787
560,1791
561,1968
562,1986
563,1830
564,1782
565,1937
566,2010
567,1876
568,1806
569,1949
570,2064
571,1937
572,1827
573,1936
574,2071
575,1974
576,1856
577,1938
578,2114
579,2077
580,1907
581,1950
582,2137
583,2122
584,1966
585,1959
586,2134
587,2170
588,2011
589,1957
590,2117
591,2183
592,2045
593,1951
594,2090
595,2190
596,2039
597,1901
598,1967
599,2093
600,1962
601,1788
602,1826
603,1958
604,1857
605,1675
606,1683
607,1842
608,1818
609,1646
610,1621
611,1782
612,1807
613,1651
614,1610
615,1769
616,1830
617,1671
618,1578
619,1712
620,1827
621,1707
622,1590
623,1690
624,1836
625,1743
626,1612
627,1686
628,1844
629,1776
630,1619
631,1655
632,1837
633,1826
634,1665
635,1649
636,1825
637,1862
638,1712
639,1661
640,1818
641,1890
642,1744
643,1647
644,1776
645,1885
646,1763
647,1648
648,1751
649,1885
650,1783
651,1645
652,1715
653,1877
654,1824
655,1671
656,1697
657,1867
658,1849
659,1690
660,1675
661,1846
662,1875
663,1715
664,1657
665,1798
666,1869
667,1734
668,1635
669,1769
670,1875
671,1757
672,1647
673,1761
674,1897
675,1793
676,1647
677,1714
678,1875
679,1813
680,1659
681,1694
682,1866
683,1851
684,1693
685,1669
686,1834
687,1865
688,1712
689,1665
690,1820
691,1897
692,1759
693,1667
694,1802
695,1915
696,1797
697,1678
698,1777
699,1908
700,1808
701,1667
702,1744
703,1909
704,1852
705,1693
706,1719
707,1889
708,1877
709,1719
710,1708
711,1877
712,1904
713,1747
714,1697
715,1849
716,1921
717,1776
718,1683
719,1808
720,1916
721,1810
722,1721
723,1857
724,2029
725,1959
726,1825
727,1877
728,2027
729,1977
730,1834
731,1872
732,2075
733,2075
734,1880
735,1803
736,1909
737,1922
738,1778
739,1741
740,1873
741,1919
742,1773
743,1693
744,1819
745,1925
746,1794
747,1673
748,1767
749,1905
750,1814
751,1675
752,1735
753,1888
754,1838
755,1685
756,1711
757,1865
758,1821
759,1643
760,1712
761,2065
762,2390
763,2559
764,2734
765,2961
766,2923
767,2603
768,2327
769,2174
770,1981
771,1679
772,1515
773,1684
774,1921
775,1891
776,1775
777,1835
778,1998
779,1943
780,1776
781,1781
782,1958
783,1949
784,1791
785,1773
786,1933
787,1968
788,1811
789,1757
790,1909
791,2000
792,1872
793,1776
794,1893
795,1999
796,1888
797,1783
798,1884
799,2032
800,1943
801,1806
802,1872
803,2045
804,2000
805,1850
806,1874
807,2039
808,2039
809,1897
810,1873
811,2033
812,2077
813,1930
814,1893
815,2069
816,2161
817,2026
818,1927
819,2063
820,2178
821,2071
822,1955
823,2066
824,2224
825,2160
826,2015
827,2071
828,2229
829,2189
830,2026
831,2032
832,2192
833,2173
834,1990
835,1936
836,2068
837,2083
838,1903
839,1805
840,1905
841,1949
842,1783
843,1680
844,1781
845,1879
846,1761
847,1627
848,1711
849,1847
850,1761
851,1613
852,1665
853,1824
854,1789
855,1637
856,1649
857,1812
858,1809
859,1650
860,1630
861,1794
862,1837
863,1689
864,1617
865,1770
866,1856
867,1722
868,1630
869,1750
870,1873
871,1768
872,1657
873,1753
874,1889
875,1808
876,1669
877,1725
878,1887
879,1846
880,1699
881,1709
882,1874
883,1887
884,1740
885,1707
886,1853
887,1883
888,1738
889,1667
890,1809
891,1894
892,1759
893,1662
894,1776
895,1887
896,1789
897,1669
898,1751
899,1885
900,1813
901,1673
902,1713
903,1871
904,1837
905,1695
906,1703
907,1857
908,1842
909,1691
910,1659
911,1804
912,1843
913,1712
914,1661
915,1811
916,1888
917,1759
918,1673
919,1788
920,1903
921,1799
922,1673
923,1755
924,1894
925,1821
926,1689
927,1743
928,1904
929,1863
930,1710
931,1721
932,1885
933,1887
934,1741
935,1711
936,1861
937,1904
938,1753
939,1681
940,1839
941,1932
942,1799
943,1690
944,1795
945,1927
946,1833
947,1713
948,1787
949,1917
950,1845
951,1707
952,1753
953,1915
954,1879
955,1726
956,1731
957,1898
958,1905
959,1763
960,1759
961,1947
962,2015
963,1899
964,1838
965,1955
966,2032
967,1914
968,1821
969,1953
970,2096
971,1968
972,1799
973,1830
974,1943
975,1872
976,1741
977,1778
978,1917
979,1866
980,1712
981,1723
982,1872
983,1861
984,1705
985,1680
986,1843
987,1887
988,1749
989,1680
990,1825
991,1913
992,1787
993,1684
994,1777
995,1867
996,1727
997,1615
998,1806
999,2176
1000,2425
1001,2583
1002,2805
1003,2976
1004,2773
1005,2464
1006,2271
1007,2160
1008,1898
1009,1601
1010,1564
1011,1791
1012,1921
1013,1823
1014,1773
1015,1908
1016,1983
1017,1852
1018,1744
1019,1855
1020,1975
1021,1862
1022,1718
1023,1805
1024,1958
1025,1904
1026,1769
1027,1808
1028,1961
1029,1930
1030,1797
1031,1809
1032,1968
1033,1968
1034,1825
1035,1810
1036,1969
1037,2017
1038,1872
1039,1797
1040,1937
1041,2033
1042,1922
1043,1817
1044,1919
1045,2043
1046,1968
1047,1862
1048,1943
1049,2096
1050,2030
1051,1889
1052,1939
1053,2103
1054,2079
1055,1936
1056,1951
1057,2126
1058,2147
1059,2007
1060,1979
1061,2133
1062,2194
1063,2067
1064,1995
1065,2125
1066,2215
1067,2096
1068,1988
1069,2086
1070,2192
1071,2089
1072,1932
1073,1961
1074,2062
1075,1956
1076,1789
1077,1808
1078,1947
1079,1906
1080,1735
1081,1711
1082,1855
1083,1855
1084,1689
1085,1637
1086,1776
1087,1813
1088,1680
1089,1615
1090,1744
1091,1827
1092,1718
1093,1618
1094,1719
1095,1839
1096,1744
1097,1615
1098,1682
1099,1828
1100,1778
1101,1648
1102,1681
1103,1833
1104,1814
1105,1681
1106,1682
1107,1840
1108,1853
1109,1713
1110,1677
1111,1823
1112,1883
1113,1760
1114,1683
1115,1808
1116,1890
1117,1773
1118,1669
1119,1774
1120,1882
1121,1789
1122,1664
1123,1735
1124,1881
1125,1819
1126,1679
1127,1712
1128,1867
1129,1845
1130,1701
1131,1695
1132,1854
1133,1863
1134,1713
1135,1662
1136,1805
1137,1858
1138,1733
1139,1658
1140,1778
1141,1869
1142,1759
1143,1655
1144,1750
1145,1868
1146,1776
1147,1650
1148,1719
1149,1862
1150,1808
1151,1678
1152,1713
1153,1863
1154,1843
1155,1700
1156,1692
1157,1840
1158,1846
1159,1711
1160,1676
1161,1828
1162,1877
1163,1744
1164,1666
1165,1786
1166,1869
1167,1750
1168,1653
1169,1766
1170,1887
1171,1791
1172,1664
1173,1739
1174,1886
1175,1830
1176,1698
1177,1734
1178,1882
1179,1863
1180,1717
1181,1715
1182,1873
1183,1891
1184,1746
1185,1707
1186,1845
1187,1906
1188,1777
1189,1699
1190,1814
1191,1904
1192,1799
1193,1703
1194,1799
1195,1925
1196,1869
1197,1776
1198,1865
1199,2030
1200,1981
1201,1819
1202,1847
1203,2007
1204,2001
1205,1879
1206,1885
1207,2021
1208,2006
1209,1813
1210,1739
1211,1870
1212,1929
1213,1789
1214,1699
1215,1814
1216,1906
1217,1781
1218,1674
1219,1767
1220,1887
1221,1802
1222,1680
1223,1747
1224,1889
1225,1839
1226,1707
1227,1730
1228,1873
1229,1846
1230,1706
1231,1674
1232,1782
1233,1810
1234,1802
1235,2002
1236,2453
1237,2810
1238,2832
1239,2704
1240,2661
1241,2608
1242,2293
1243,1927
1244,1777
1245,1769
1246,1680
1247,1630
1248,1774
1249,1967
1250,1927
1251,1785
1252,1807
1253,1948
1254,1919
1255,1773
1256,1761
1257,1919
1258,1937
1259,1802
1260,1757
1261,1904
1262,1967
1263,1834
1264,1749
1265,1872
1266,1978
1267,1872
1268,1766
1269,1866
1270,1987
1271,1904
1272,1788
1273,1856
1274,2006
1275,1959
1276,1825
1277,1859
1278,2014
1279,2000
1280,1859
1281,1853
1282,2016
1283,2047
1284,1913
1285,1872
1286,2011
1287,2078
1288,1957
1289,1889
1290,2019
1291,2128
1292,2032
1293,1937
1294,2054
1295,2191
1296,2101
1297,1970
1298,2032
1299,2183
1300,2151
1301,2015
1302,2036
1303,2192
1304,2179
1305,2012
1306,1985
1307,2128
1308,2128
1309,1962
1310,1887
1311,2004
1312,2027
1313,1857
1314,1754
1315,1856
1316,1933
1317,1806
1318,1682
1319,1757
1320,1859
1321,1771
1322,1645
1323,1698
1324,1847
1325,1787
1326,1643
1327,1664
1328,1827
1329,1814
1330,1673
1331,1661
1332,1809
1333,1835
1334,1699
1335,1653
1336,1793
1337,1860
1338,1731
1339,1651
1340,1778
1341,1879
1342,1775
1343,1666
1344,1761
1345,1890
1346,1805
1347,1680
1348,1739
1349,1883
1350,1848
1351,1714
1352,1742
1353,1898
1354,1883
1355,1732
1356,1712
1357,1857
1358,1885
1359,1742
1360,1689
1361,1834
1362,1904
1363,1785
1364,1692
1365,1807
1366,1901
1367,1795
1368,1682
1369,1767
1370,1889
1371,1821
1372,1690
1373,1737
1374,1877
1375,1833
1376,1680
1377,1693
1378,1849
1379,1837
1380,1701
1381,1695
1382,1841
1383,1872
1384,1728
1385,1669
1386,1799
1387,1872
1388,1744
1389,1662
1390,1787
1391,1898
1392,1787
1393,1679
1394,1759
1395,1878
1396,1793
1397,1671
1398,1721
1399,1863
1400,1820
1401,1685
1402,1703
1403,1843
1404,1839
1405,1709
1406,1696
1407,1845
1408,1875
1409,1738
1410,1680
1411,1808
1412,1878
1413,1767
1414,1694
1415,1805
1416,1904
1417,1799
1418,1683
1419,1774
1420,1908
1421,1834
1422,1700
1423,1751
1424,1899
1425,1878
1426,1781
1427,1823
1428,1981
1429,1981
1430,1839
1431,1813
1432,1973
1433,2018
1434,1897
1435,1856
1436,1975
1437,2007
1438,1846
1439,1715
1440,1808
1441,1917
1442,1811
1443,1689
1444,1762
1445,1895
1446,1835
1447,1691
1448,1716
1449,1852
1450,1810
1451,1674
1452,1687
1453,1842
1454,1853
1455,1710
1456,1682
1457,1829
1458,1861
1459,1721
1460,1640
1461,1737
1462,1803
1463,1783
1464,1889
1465,2299
1466,2741
1467,2865
1468,2746
1469,2650
1470,2603
1471,2345
1472,1969
1473,1763
1474,1753
1475,1683
1476,1607
1477,1695
1478,1903
1479,1943
1480,1811
1481,1778
1482,1901
1483,1931
1484,1805
1485,1746
1486,1863
1487,1931
1488,1815
1489,1729
1490,1840
1491,1950
1492,1861
1493,1739
1494,1812
1495,1962
1496,1905
1497,1777
1498,1818
1499,1958
1500,1935
1501,1802
1502,1821
1503,1981
1504,1979
1505,1841
1506,1820
1507,1979
1508,2027
1509,1897
1510,1837
1511,1967
1512,2035
1513,1928
1514,1842
1515,1956
1516,2067
1517,1983
1518,1886
1519,1985
1520,2127
1521,2054
1522,1920
1523,1967
1524,2127
1525,2110
1526,1982
1527,1999
1528,2158
1529,2177
1530,2055
1531,2017
1532,2154
1533,2193
1534,2067
1535,1971
1536,2067
1537,2128
1538,1987
1539,1862
1540,1915
1541,1996
1542,1890
1543,1750
1544,1791
1545,1901
1546,1827
1547,1690
1548,1712
1549,1840
1550,1796
1551,1658
1552,1651
1553,1790
1554,1792
1555,1668
1556,1637
1557,1774
1558,1806
1559,1665
1560,1600
1561,1735
1562,1821
1563,1718
1564,1619
1565,1712
1566,1822
1567,1744
1568,1646
1569,1735
1570,1866
1571,1811
1572,1687
1573,1719
1574,1854
1575,1829
1576,1703
1577,1707
1578,1863
1579,1875
1580,1743
1581,1693
1582,1821
1583,1863
1584,1751
1585,1687
1586,1808
1587,1891
1588,1786
1589,1685
1590,1773
1591,1873
1592,1799
1593,1692
1594,1758
1595,1879
1596,1821
1597,1689
1598,1712
1599,1849
1600,1840
1601,1711
1602,1696
1603,1826
1604,1839
1605,1712
1606,1674
1607,1805
1608,1854
1609,1734
1610,1671
1611,1778
1612,1863
1613,1755
1614,1664
1615,1764
1616,1873
1617,1781
1618,1667
1619,1735
1620,1865
1621,1815
1622,1693
1623,1717
1624,1845
1625,1829
1626,1712
1627,1718
1628,1855
1629,1857
1630,1721
1631,1680
1632,1818
1633,1877
1634,1759
1635,1712
1636,1842
1637,1950
1638,1872
1639,1806
1640,1899
1641,2000
1642,1921
1643,1819
1644,1893
1645,2032
1646,1984
1647,1852
1648,1840
1649,1919
1650,1872
1651,1743
1652,1727
1653,1856
1654,1846
1655,1709
1656,1677
1657,1808
1658,1845
1659,1724
1660,1659
1661,1771
1662,1843
1663,1743
1664,1657
1665,1758
1666,1869
1667,1789
1668,1666
1669,1715
1670,1814
1671,1721
1672,1573
1673,1699
1674,2059
1675,2353
1676,2558
1677,2803
1678,3015
1679,2869
1680,2532
1681,2283
1682,2112
1683,1881
1684,1603
1685,1495
1686,1685
1687,1866
1688,1834
1689,1763
1690,1851
1691,1947
1692,1855
1693,1733
1694,1795
1695,1930
1696,1877
1697,1744
1698,1767
1699,1905
1700,1899
1701,1776
1702,1785
1703,1934
1704,1946
1705,1812
1706,1773
1707,1904
1708,1965
1709,1857
1710,1787
1711,1891
1712,1971
1713,1886
1714,1804
1715,1898
1716,2009
1717,1936
1718,1823
1719,1889
1720,2021
1721,1968
1722,1851
1723,1883
1724,2032
1725,2035
1726,1915
1727,1917
1728,2070
1729,2095
1730,1973
1731,1947
1732,2095
1733,2154
1734,2039
1735,1968
1736,2085
1737,2187
1738,2100
1739,2000
1740,2083
1741,2192
1742,2124
1743,2016
1744,2074
1745,2185
1746,2112
1747,1965
1748,1955
1749,2064
1750,2011
1751,1849
1752,1805
1753,1910
1754,1914
1755,1769
1756,1710
1757,1809
1758,1842
1759,1722
1760,1646
1761,1754
1762,1840
1763,1728
1764,1627
1765,1709
1766,1826
1767,1744
1768,1631
1769,1685
1770,1818
1771,1762
1772,1643
1773,1671
1774,1808
1775,1803
1776,1675
1777,1675
1778,1815
1779,1847
1780,1723
1781,1685
1782,1812
1783,1865
1784,1749
1785,1680
1786,1794
1787,1887
1788,1795
1789,1702
1790,1789
1791,1895
1792,1810
1793,1687
1794,1747
1795,1895
1796,1846
1797,1712
1798,1733
1799,1883
1800,1861
1801,1729
1802,1723
1803,1854
1804,1866
1805,1738
1806,1691
1807,1837
1808,1893
1809,1777
1810,1695
1811,1807
1812,1895
1813,1789
1814,1686
1815,1774
1816,1883
1817,1810
1818,1683
1819,1742
1820,1881
1821,1841
1822,1712
1823,1734
1824,1877
1825,1866
1826,1733
1827,1715
1828,1859
1829,1872
1830,1744
1831,1706
1832,1837
1833,1883
1834,1757
1835,1681
1836,1799
1837,1895
1838,1809
1839,1730
1840,1849
1841,1995
1842,1937
1843,1829
1844,1885
1845,2013
1846,1968
1847,1838
1848,1867
1849,2032
1850,2035
1851,1856
1852,1802
1853,1890
1854,1887
1855,1749
1856,1701
1857,1826
1858,1867
1859,1745
1860,1677
1861,1782
1862,1847
1863,1727
1864,1623
1865,1712
1866,1837
1867,1764
1868,1648
1869,1707
1870,1839
1871,1785
1872,1648
1873,1663
1874,1788
1875,1735
1876,1581
1877,1629
1878,1929
1879,2238
1880,2431
1881,2639
1882,2861
1883,2832
1884,2541
1885,2303
1886,2128
1887,1911
1888,1623
1889,1466
1890,1594
1891,1783
1892,1780
1893,1699
1894,1745
1895,1851
1896,1795
1897,1655
1898,1679
1899,1808
1900,1795
1901,1664
1902,1641
1903,1771
1904,1791
1905,1667
1906,1631
1907,1762
1908,1811
1909,1696
1910,1619
1911,1728
1912,1810
1913,1705
1914,1605
1915,1697
1916,1808
1917,1734
1918,1623
1919,1690
1920,1835
1921,1790
1922,1664
1923,1684
1924,1811
1925,1794
1926,1673
1927,1670
1928,1808
1929,1831
1930,1703
1931,1662
1932,1797
1933,1853
1934,1740
1935,1680
1936,1799
1937,1900
1938,1806
1939,1712
1940,1787
1941,1891
1942,1820
1943,1715
1944,1775
1945,1903
1946,1840
1947,1689
1948,1691
1949,1815
1950,1797
1951,1648
1952,1602
1953,1707
1954,1691
1955,1530
1956,1442
1957,1532
1958,1570
1959,1428
1960,1332
1961,1418
1962,1494
1963,1391
1964,1277
1965,1337
1966,1439
1967,1360
1968,1251
1969,1293
1970,1406
1971,1346
1972,1226
1973,1250
1974,1386
1975,1367
1976,1244
1977,1220
1978,1358
1979,1362
1980,1238
1981,1199
1982,1315
1983,1373
1984,1267
1985,1197
1986,1291
1987,1373
1988,1284
1989,1187
1990,1257
1991,1361
1992,1296
1993,1186
1994,1234
1995,1363
1996,1313
1997,1185
1998,1189
1999,1305
2000,1296
2001,1170
2002,1141
2003,1257
2004,1267
2005,1150
2006,1107
2007,1226
2008,1275
2009,1167
2010,1083
2011,1165
2012,1241
2013,1163
2014,1057
2015,1110
2016,1213
2017,1162
2018,1051
2019,1082
2020,1197
2021,1161
2022,1039
2023,1040
2024,1161
2025,1161
2026,1051
2027,1014
2028,1136
2029,1158
2030,1040
2031,965
2032,1065
2033,1115
2034,1018
2035,940
2036,1022
2037,1099
2038,1009
2039,919
2040,981
2041,1087
2042,1034
2043,917
2044,944
2045,1059
2046,1023
2047,906
2048,916
2049,1038
2050,1045
2051,940
2052,909
2053,1008
2054,1043
2055,949
2056,897
2057,991
2058,1063
2059,1009
2060,964
2061,1072
2062,1163
2063,1092
2064,983
2065,1031
2066,1137
2067,1111
2068,1050
2069,1091
2070,1170
2071,1096
2072,944
2073,923
2074,1035
2075,1040
2076,935
2077,881
2078,978
2079,1023
2080,927
2081,861
2082,944
2083,999
2084,926
2085,862
2086,931
2087,1015
2088,965
2089,886
2090,932
2091,1023
2092,990
2093,896
2094,897
2095,972
2096,1012
2097,1085
2098,1357
2099,1789
2100,2047
2101,2047
2102,1941
2103,1906
2104,1808
2105,1490
2106,1154
2107,1023
2108,1006
2109,951
2110,975
2111,1141
2112,1261
2113,1200
2114,1105
2115,1148
2116,1243
2117,1205
2118,1114
2119,1152
2120,1259
2121,1245
2122,1151
2123,1157
2124,1265
2125,1275
2126,1188
2127,1168
2128,1283
2129,1317
2130,1232
2131,1194
2132,1295
2133,1360
2134,1281
2135,1225
2136,1315
2137,1408
2138,1357
2139,1271
2140,1327
2141,1437
2142,1414
2143,1340
2144,1370
2145,1490
2146,1473
2147,1382
2148,1397
2149,1520
2150,1535
2151,1469
2152,1465
2153,1588
2154,1625
2155,1535
2156,1506
2157,1628
2158,1707
2159,1643
2160,1580
2161,1667
2162,1763
2163,1710
2164,1623
2165,1683
2166,1793
2167,1754
2168,1663
2169,1686
2170,1787
2171,1744
2172,1613
2173,1595
2174,1683
2175,1663
2176,1535
2177,1490
2178,1584
2179,1600
2180,1491
2181,1444
2182,1535
2183,1603
2184,1519
2185,1445
2186,1520
2187,1609
2188,1535
2189,1463
2190,1530
2191,1637
2192,1597
2193,1506
2194,1535
2195,1665
2196,1648
2197,1535
2198,1570
2199,1685
2200,1701
2201,1600
2202,1584
2203,1710
2204,1755
2205,1658
2206,1619
2207,1741
2208,1815
2209,1733
2210,1678
2211,1774
2212,1856
2213,1782
2214,1701
2215,1773
2216,1879
2217,1835
2218,1736
2219,1773
2220,1895
2221,1872
2222,1766
2223,1780
2224,1916
2225,1917
2226,1798
2227,1779
2228,1907
2229,1951
2230,1851
2231,1795
2232,1904
2233,1973
2234,1875
2235,1807
2236,1909
2237,2001
2238,1934
2239,1846
2240,1905
2241,2027
2242,1973
2243,1874
2244,1919
2245,2047
2246,2022
2247,1908
2248,1920
2249,2055
2250,2046
2251,1935
2252,1927
2253,2064
2254,2094
2255,1981
2256,1932
2257,2047
2258,2113
2259,2012
2260,1939
2261,2030
2262,2128
2263,2055
2264,1967
2265,2038
2266,2160
2267,2107
2268,1998
2269,2039
2270,2165
2271,2141
2272,2029
2273,2034
2274,2174
2275,2178
2276,2065
2277,2044
2278,2180
2279,2217
2280,2106
2281,2043
2282,2160
2283,2240
2284,2157
2285,2078
2286,2183
2287,2303
2288,2250
2289,2177
2290,2267
2291,2399
2292,2323
2293,2206
2294,2256
2295,2394
2296,2379
2297,2281
2298,2281
2299,2373
2300,2323
2301,2176
2302,2144
2303,2279
2304,2314
2305,2193
2306,2128
2307,2239
2308,2302
2309,2197
2310,2128
2311,2224
2312,2320
2313,2239
2314,2137
2315,2210
2316,2323
2317,2275
2318,2169
2319,2207
2320,2331
2321,2289
2322,2150
2323,2123
2324,2246
2325,2334
2326,2405
2327,2688
2328,3207
2329,3583
2330,3431
2331,3137
2332,3095
2333,2966
2334,2559
2335,2225
2336,2176
2337,2256
2338,2240
2339,2222
2340,2339
2341,2485
2342,2422
2343,2294
2344,2318
2345,2446
2346,2414
2347,2288
2348,2298
2349,2448
2350,2455
2351,2320
2352,2291
2353,2429
2354,2470
2355,2353
2356,2304
2357,2425
2358,2507
2359,2402
2360,2321
2361,2418
2362,2523
2363,2435
2364,2327
2365,2411
2366,2550
2367,2495
2368,2374
2369,2411
2370,2550
2371,2539
2372,2417
2373,2421
2374,2559
2375,2600
2376,2474
2377,2450
2378,2603
2379,2654
2380,2529
2381,2479
2382,2608
2383,2687
2384,2592
2385,2512
2386,2620
2387,2731
2388,2645
2389,2542
2390,2619
2391,2751
2392,2693
2393,2559
2394,2608
2395,2749
2396,2715
2397,2559
2398,2542
2399,2663
2400,2647
2401,2493
2402,2426
2403,2525
2404,2542
2405,2387
2406,2302
2407,2402
2408,2463
2409,2336
2410,2240
2411,2321
2412,2416
2413,2323
2414,2210
2415,2274
2416,2399
2417,2340
2418,2220
2419,2256
2420,2394
2421,2365
2422,2228
2423,2230
2424,2377
2425,2394
2426,2273
2427,2241
2428,2374
2429,2416
2430,2299
2431,2239
2432,2350
2433,2425
2434,2320
2435,2240
2436,2343
2437,2459
2438,2384
2439,2270
2440,2322
2441,2439
2442,2383
2443,2267
2444,2298
2445,2432
2446,2407
2447,2269
2448,2261
2449,2397
2450,2403
2451,2275
2452,2245
2453,2377
2454,2423
2455,2301
2456,2227
2457,2337
2458,2416
2459,2305
2460,2213
2461,2306
2462,2421
2463,2333
2464,2215
2465,2272
2466,2399
2467,2337
2468,2209
2469,2243
2470,2385
2471,2364
2472,2231
2473,2224
2474,2363
2475,2369
2476,2237
2477,2195
2478,2322
2479,2370
2480,2246
2481,2178
2482,2304
2483,2391
2484,2289
2485,2192
2486,2282
2487,2384
2488,2291
2489,2176
2490,2247
2491,2384
2492,2322
2493,2189
2494,2214
2495,2353
2496,2331
2497,2197
2498,2192
2499,2326
2500,2337
2501,2205
2502,2180
2503,2318
2504,2363
2505,2233
2506,2154
2507,2257
2508,2342
2509,2237
2510,2143
2511,2242
2512,2357
2513,2273
2514,2150
2515,2213
2516,2347
2517,2292
2518,2161
2519,2189
2520,2351
2521,2352
2522,2241
2523,2246
2524,2396
2525,2415
2526,2260
2527,2208
2528,2347
2529,2413
2530,2307
2531,2256
2532,2348
2533,2386
2534,2225
2535,2094
2536,2185
2537,2309
2538,2226
2539,2093
2540,2135
2541,2270
2542,2208
2543,2061
2544,2075
2545,2215
2546,2197
2547,2062
2548,2047
2549,2185
2550,2199
2551,2066
2552,2022
2553,2153
2554,2193
2555,2055
2556,1950
2557,2044
2558,2192
2559,2229
2560,2383
2561,2784
2562,3200
2563,3184
2564,2884
2565,2767
2566,2763
2567,2480
2568,2096
2569,1924
2570,2012
2571,2037
2572,1985
2573,2041
2574,2220
2575,2238
2576,2090
2577,2014
2578,2141
2579,2199
2580,2080
2581,2000
2582,2112
2583,2190
2584,2080
2585,1968
2586,2061
2587,2185
2588,2109
2589,1985
2590,2063
2591,2195
2592,2143
2593,1997
2594,2015
2595,2166
2596,2160
2597,2027
2598,2007
2599,2159
2600,2182
2601,2044
2602,2005
2603,2160
2604,2217
2605,2081
2606,2000
2607,2128
2608,2224
2609,2127
2610,2017
2611,2116
2612,2241
2613,2154
2614,2032
2615,2107
2616,2256
2617,2213
2618,2078
2619,2109
2620,2265
2621,2251
2622,2113
2623,2102
2624,2253
2625,2274
2626,2136
2627,2092
2628,2221
2629,2277
2630,2148
2631,2054
2632,2145
2633,2214
2634,2065
2635,1935
2636,2000
2637,2101
2638,1978
2639,1826
2640,1857
2641,1968
2642,1897
2643,1744
2644,1754
2645,1890
2646,1858
2647,1710
2648,1701
2649,1847
2650,1871
2651,1725
2652,1675
2653,1807
2654,1870
2655,1731
2656,1650
2657,1767
2658,1863
2659,1759
2660,1659
2661,1748
2662,1868
2663,1787
2664,1657
2665,1719
2666,1871
2667,1831
2668,1695
2669,1712
2670,1857
2671,1835
2672,1697
2673,1698
2674,1857
2675,1877
2676,1733
2677,1678
2678,1811
2679,1872
2680,1735
2681,1648
2682,1760
2683,1859
2684,1747
2685,1643
2686,1740
2687,1856
2688,1762
2689,1622
2690,1680
2691,1823
2692,1775
2693,1630
2694,1648
2695,1799
2696,1786
2697,1646
2698,1627
2699,1783
2700,1818
2701,1667
2702,1616
2703,1756
2704,1826
2705,1691
2706,1606
2707,1739
2708,1846
2709,1722
2710,1600
2711,1690
2712,1822
2713,1741
2714,1605
2715,1650
2716,1798
2717,1755
2718,1623
2719,1648
2720,1809
2721,1805
2722,1653
2723,1628
2724,1776
2725,1808
2726,1664
2727,1613
2728,1750
2729,1820
2730,1695
2731,1610
2732,1723
2733,1820
2734,1705
2735,1595
2736,1687
2737,1828
2738,1743
2739,1611
2740,1667
2741,1833
2742,1792
2743,1635
2744,1649
2745,1804
2746,1798
2747,1655
2748,1631
2749,1783
2750,1820
2751,1680
2752,1648
2753,1822
2754,1927
2755,1813
2756,1731
2757,1855
2758,1951
2759,1838
2760,1729
2761,1831
2762,1988
2763,1915
2764,1745
2765,1744
2766,1847
2767,1779
2768,1645
2769,1669
2770,1838
2771,1819
2772,1659
2773,1630
2774,1776
2775,1791
2776,1631
2777,1570
2778,1714
2779,1790
2780,1665
2781,1584
2782,1705
2783,1818
2784,1713
2785,1584
2786,1662
2787,1788
2788,1677
2789,1520
2790,1654
2791,1987
2792,2231
2793,2362
2794,2559
2795,2757
2796,2612
2797,2305
2798,2123
2799,2061
2800,1858
2801,1535
2802,1458
2803,1674
2804,1836
2805,1758
2806,1682
2807,1805
2808,1901
2809,1776
2810,1653
2811,1743
2812,1883
2813,1802
2814,1671
2815,1730
2816,1893
2817,1845
2818,1692
2819,1707
2820,1872
2821,1878
2822,1730
2823,1713
2824,1872
2825,1915
2826,1767
2827,1709
2828,1853
2829,1936
2830,1818
2831,1744
2832,1858
2833,1968
2834,1853
2835,1734
2836,1833
2837,1983
2838,1908
2839,1781
2840,1839
2841,1995
2842,1955
2843,1809
2844,1840
2845,2019
2846,2029
2847,1873
2848,1851
2849,2010
2850,2063
2851,1911
2852,1856
2853,2006
2854,2113
2855,1989
2856,1904
2857,2018
2858,2131
2859,2021
2860,1902
2861,1979
2862,2112
2863,2023
2864,1866
2865,1891
2866,2011
2867,1936
2868,1763
2869,1744
2870,1883
2871,1851
2872,1679
2873,1647
2874,1776
2875,1805
2876,1643
2877,1571
2878,1707
2879,1783
2880,1653
2881,1560
2882,1670
2883,1783
2884,1674
2885,1535
2886,1637
2887,1782
2888,1709
2889,1570
2890,1611
2891,1779
2892,1759
2893,1617
2894,1633
2895,1791
2896,1787
2897,1631
2898,1609
2899,1775
2900,1813
2901,1666
2902,1600
2903,1744
2904,1835
2905,1702
2906,1605
2907,1718
2908,1845
2909,1744
2910,1619
2911,1700
2912,1839
2913,1751
2914,1605
2915,1653
2916,1822
2917,1781
2918,1629
2919,1634
2920,1805
2921,1808
2922,1643
2923,1611
2924,1774
2925,1821
2926,1674
2927,1600
2928,1730
2929,1818
2930,1692
2931,1589
2932,1711
2933,1839
2934,1730
2935,1599
2936,1679
2937,1825
2938,1744
2939,1604
2940,1662
2941,1843
2942,1809
2943,1649
2944,1645
2945,1799
2946,1797
2947,1642
2948,1619
2949,1783
2950,1830
2951,1683
2952,1619
2953,1762
2954,1856
2955,1719
2956,1617
2957,1735
2958,1859
2959,1749
2960,1621
2961,1709
2962,1862
2963,1789
2964,1633
2965,1678
2966,1854
2967,1817
2968,1663
2969,1669
2970,1837
2971,1841
2972,1687
2973,1663
2974,1823
2975,1863
2976,1711
2977,1643
2978,1790
2979,1883
2980,1760
2981,1671
2982,1811
2983,1973
2984,1894
2985,1783
2986,1863
2987,2001
2988,1921
2989,1783
2990,1835
2991,2025
2992,1994
2993,1807
2994,1759
2995,1886
2996,1862
2997,1707
2998,1681
2999,1846
3000,1885
3001,1727
3002,1649
3003,1776
3004,1865
3005,1734
3006,1627
3007,1754
3008,1878
3009,1776
3010,1619
3011,1713
3012,1867
3013,1797
3014,1642
3015,1667
3016,1814
3017,1758
3018,1599
3019,1701
3020,2067
3021,2369
3022,2480
3023,2605
3024,2767
3025,2690
3026,2410
3027,2164
3028,2078
3029,1936
3030,1667
3031,1535
3032,1712
3033,1920
3034,1869
3035,1749
3036,1814
3037,1953
3038,1879
3039,1728
3040,1771
3041,1936
3042,1903
3043,1744
3044,1755
3045,1923
3046,1935
3047,1782
3048,1750
3049,1920
3050,1974
3051,1821
3052,1745
3053,1883
3054,1984
3055,1872
3056,1761
3057,1868
3058,2002
3059,1902
3060,1767
3061,1850
3062,2026
3063,1969
3064,1827
3065,1873
3066,2042
3067,2007
3068,1847
3069,1856
3070,2038
3071,2070
3072,1920
3073,1883
3074,2059
3075,2128
3076,1982
3077,1904
3078,2053
3079,2165
3080,2054
3081,1948
3082,2059
3083,2192
3084,2096
3085,1965
3086,2045
3087,2208
3088,2151
3089,1999
3090,2027
3091,2181
3092,2128
3093,1936
3094,1909
3095,2062
3096,2044
3097,1861
3098,1789
3099,1917
3100,1949
3101,1776
3102,1682
3103,1810
3104,1903
3105,1764
3106,1639
3107,1734
3108,1856
3109,1750
3110,1618
3111,1698
3112,1855
3113,1782
3114,1631
3115,1674
3116,1851
3117,1829
3118,1674
3119,1669
3120,1840
3121,1851
3122,1686
3123,1641
3124,1813
3125,1893
3126,1746
3127,1664
3128,1798
3129,1895
3130,1769
3131,1654
3132,1766
3133,1904
3134,1808
3135,1670
3136,1739
3137,1903
3138,1841
3139,1687
3140,1712
3141,1884
3142,1869
3143,1712
3144,1703
3145,1865
3146,1874
3147,1712
3148,1662
3149,1821
3150,1889
3151,1738
3152,1645
3153,1788
3154,1904
3155,1775
3156,1657
3157,1761
3158,1889
3159,1791
3160,1658
3161,1728
3162,1897
3163,1831
3164,1666
3165,1701
3166,1882
3167,1869
3168,1706
3169,1680
3170,1835
3171,1861
3172,1701
3173,1660
3174,1819
3175,1890
3176,1739
3177,1655
3178,1797
3179,1911
3180,1782
3181,1655
3182,1757
3183,1902
3184,1810
3185,1665
3186,1735
3187,1903
3188,1840
3189,1685
3190,1715
3191,1888
3192,1871
3193,1710
3194,1693
3195,1850
3196,1875
3197,1725
3198,1680
3199,1839
3200,1904
3201,1767
3202,1678
3203,1803
3204,1916
3205,1790
3206,1679
3207,1791
3208,1955
3209,1881
3210,1765
3211,1861
3212,2033
3213,1968
3214,1806
3215,1836
3216,2013
3217,2011
3218,1877
3219,1856
3220,1979
3221,1957
3222,1755
3223,1695
3224,1859
3225,1937
3226,1786
3227,1680
3228,1809
3229,1911
3230,1773
3231,1644
3232,1753
3233,1899
3234,1808
3235,1671
3236,1729
3237,1882
3238,1838
3239,1682
3240,1707
3241,1869
3242,1838
3243,1643
3244,1601
3245,1818
3246,1989
3247,2079
3248,2317
3249,2713
3250,2885
3251,2642
3252,2384
3253,2386
3254,2331
3255,1983
3256,1661
3257,1664
3258,1815
3259,1778
3260,1694
3261,1805
3262,1986
3263,1936
3264,1763
3265,1775
3266,1943
3267,1936
3268,1778
3269,1749
3270,1915
3271,1945
3272,1789
3273,1741
3274,1904
3275,1989
3276,1840
3277,1744
3278,1870
3279,1981
3280,1862
3281,1755
3282,1859
3283,2005
3284,1914
3285,1776
3286,1851
3287,2027
3288,1972
3289,1808
3290,1837
3291,2007
3292,2000
3293,1841
3294,1830
3295,2010
3296,2061
3297,1913
3298,1847
3299,2002
3300,2092
3301,1954
3302,1872
3303,2000
3304,2126
3305,2011
3306,1899
3307,2003
3308,2160
3309,2079
3310,1927
3311,1989
3312,2160
3313,2117
3314,1968
3315,1983
3316,2163
3317,2143
3318,1965
3319,1920
3320,2069
3321,2080
3322,1889
3323,1804
3324,1934
3325,1982
3326,1815
3327,1706
3328,1812
3329,1909
3330,1761
3331,1623
3332,1718
3333,1857
3334,1773
3335,1616
3336,1664
3337,1817
3338,1765
3339,1614
3340,1634
3341,1818
3342,1813
3343,1648
3344,1627
3345,1805
3346,1846
3347,1699
3348,1633
3349,1779
3350,1868
3351,1733
3352,1646
3353,1781
3354,1904
3355,1785
3356,1659
3357,1758
3358,1908
3359,1822
3360,1667
3361,1713
3362,1878
3363,1828
3364,1668
3365,1682
3366,1863
3367,1859
3368,1694
3369,1667
3370,1840
3371,1887
3372,1734
3373,1660
3374,1805
3375,1887
3376,1741
3377,1633
3378,1754
3379,1877
3380,1759
3381,1631
3382,1733
3383,1889
3384,1803
3385,1649
3386,1695
3387,1866
3388,1817
3389,1653
3390,1664
3391,1854
3392,1859
3393,1703
3394,1671
3395,1839
3396,1876
3397,1713
3398,1643
3399,1793
3400,1884
3401,1744
3402,1641
3403,1765
3404,1889
3405,1774
3406,1648
3407,1744
3408,1901
3409,1811
3410,1664
3411,1713
3412,1872
3413,1835
3414,1684
3415,1708
3416,1877
3417,1874
3418,1712
3419,1680
3420,1845
3421,1893
3422,1734
3423,1667
3424,1815
3425,1897
3426,1762
3427,1664
3428,1780
3429,1921
3430,1809
3431,1678
3432,1771
3433,1922
3434,1840
3435,1689
3436,1753
3437,1937
3438,1931
3439,1798
3440,1825
3441,2000
3442,1990
3443,1821
3444,1803
3445,1974
3446,2045
3447,1920
3448,1843
3449,1937
3450,1968
3451,1806
3452,1690
3453,1818
3454,1947
3455,1822
3456,1679
3457,1766
3458,1918
3459,1822
3460,1664
3461,1707
3462,1872
3463,1843
3464,1690
3465,1691
3466,1855
3467,1869
3468,1722
3469,1695
3470,1855
3471,1887
3472,1706
3473,1603
3474,1791
3475,2029
3476,2131
3477,2329
3478,2706
3479,2959
3480,2751
3481,2429
3482,2353
3483,2309
3484,2009
3485,1663
3486,1609
3487,1791
3488,1826
3489,1731
3490,1776
3491,1967
3492,1977
3493,1796
3494,1746
3495,1901
3496,1953
3497,1808
3498,1731
3499,1877
3500,1979
3501,1843
3502,1741
3503,1858
3504,1975
3505,1871
3506,1755
3507,1848
3508,2009
3509,1939
3510,1791
3511,1833
3512,1991
3513,1959
3514,1811
3515,1826
3516,2003
3517,2022
3518,1869
3519,1830
3520,2000
3521,2067
3522,1917
3523,1850
3524,1998
3525,2093
3526,1953
3527,1855
3528,1978
3529,2119
3530,2029
3531,1907
3532,1989
3533,2143
3534,2080
3535,1931
3536,1979
3537,2160
3538,2141
3539,1986
3540,1984
3541,2163
3542,2185
3543,2025
3544,1981
3545,2138
3546,2187
3547,2012
3548,1912
3549,2045
3550,2130
3551,1980
3552,1840
3553,1918
3554,2018
3555,1884
3556,1728
3557,1785
3558,1921
3559,1840
3560,1677
3561,1703
3562,1858
3563,1814
3564,1651
3565,1660
3566,1840
3567,1853
3568,1693
3569,1647
3570,1802
3571,1867
3572,1726
3573,1648
3574,1781
3575,1873
3576,1745
3577,1641
3578,1760
3579,1904
3580,1808
3581,1671
3582,1735
3583,1901
3584,1840
3585,1690
3586,1739
3587,1909
3588,1873
3589,1708
3590,1697
3591,1866
3592,1894
3593,1743
3594,1702
3595,1851
3596,1909
3597,1757
3598,1678
3599,1809
3600,1904
3601,1783
3602,1680
3603,1787
3604,1917
3605,1815
3606,1675
3607,1744
3608,1904
3609,1840
3610,1681
3611,1711
3612,1862
3613,1839
3614,1684
3615,1693
3616,1871
3617,1882
3618,1719
3619,1662
3620,1833
3621,1895
3622,1757
3623,1679
3624,1813
3625,1904
3626,1774
3627,1663
3628,1780
3629,1922
3630,1823
3631,1677
3632,1744
3633,1907
3634,1853
3635,1693
3636,1718
3637,1872
3638,1857
3639,1715
3640,1712
3641,1878
3642,1904
3643,1749
3644,1698
3645,1845
3646,1918
3647,1781
3648,1695
3649,1819
3650,1919
3651,1802
3652,1685
3653,1797
3654,1923
3655,1829
3656,1694
3657,1757
3658,1921
3659,1861
3660,1703
3661,1731
3662,1910
3663,1904
3664,1744
3665,1735
3666,1911
3667,1958
3668,1823
3669,1802
3670,1983
3671,2061
3672,1904
3673,1814
3674,1951
3675,2065
3676,1962
3677,1856
3678,1941
3679,2033
3680,1885
3681,1723
3682,1791
3683,1961
3684,1904
3685,1733
3686,1743
3687,1908
3688,1872
3689,1703
3690,1694
3691,1857
3692,1891
3693,1739
3694,1686
3695,1833
3696,1900
3697,1764
3698,1680
3699,1817
3700,1910
3701,1772
3702,1621
3703,1699
3704,1910
3705,1994
3706,2141
3707,2510
3708,2922
3709,2925
3710,2639
3711,2481
3712,2480
3713,2217
3714,1791
3715,1601
3716,1728
3717,1805
3718,1738
3719,1744
3720,1925
3721,1995
3722,1846
3723,1754
3724,1872
3725,1981
3726,1859
3727,1745
3728,1853
3729,1984
3730,1891
3731,1749
3732,1815
3733,1972
3734,1920
3735,1781
3736,1805
3737,1975
3738,1965
3739,1808
3740,1798
3741,1968
3742,2011
3743,1866
3744,1807
3745,1957
3746,2034
3747,1902
3748,1807
3749,1936
3750,2062
3751,1956
3752,1843
3753,1950
3754,2110
3755,2027
3756,1877
3757,1936
3758,2111
3759,2070
3760,1930
3761,1959
3762,2132
3763,2130
3764,1980
3765,1968
3766,2142
3767,2182
3768,2032
3769,1978
3770,2133
3771,2213
3772,2079
3773,1984
3774,2105
3775,2210
3776,2090
3777,1953
3778,2026
3779,2134
3780,2017
3781,1860
3782,1883
3783,2002
3784,1919
3785,1745
3786,1748
3787,1894
3788,1872
3789,1701
3790,1669
3791,1815
3792,1840
3793,1687
3794,1620
3795,1761
3796,1843
3797,1705
3798,1609
3799,1731
3800,1840
3801,1719
3802,1608
3803,1715
3804,1866
3805,1777
3806,1616
3807,1674
3808,1845
3809,1808
3810,1667
3811,1693
3812,1855
3813,1839
3814,1682
3815,1676
3816,1835
3817,1872
3818,1715
3819,1648
3820,1793
3821,1873
3822,1743
3823,1655
3824,1791
3825,1904
3826,1793
3827,1674
3828,1757
3829,1893
3830,1812
3831,1677
3832,1723
3833,1875
3834,1840
3835,1692
3836,1693
3837,1855
3838,1850
3839,1698
3840,1671
3841,1831
3842,1872
3843,1719
3844,1649
3845,1802
3846,1883
3847,1744
3848,1655
3849,1776
3850,1887
3851,1776
3852,1648
3853,1744
3854,1898
3855,1820
3856,1680
3857,1729
3858,1883
3859,1840
3860,1685
3861,1699
3862,1861
3863,1849
3864,1689
3865,1671
3866,1835
3867,1872
3868,1728
3869,1676
3870,1829
3871,1904
3872,1767
3873,1679
3874,1803
3875,1915
3876,1799
3877,1674
3878,1763
3879,1909
3880,1834
3881,1694
3882,1735
3883,1891
3884,1862
3885,1712
3886,1718
3887,1879
3888,1874
3889,1722
3890,1707
3891,1871
3892,1907
3893,1759
3894,1693
3895,1830
3896,1920
3897,1807
3898,1729
3899,1872
3900,2015
3901,1926
3902,1808
3903,1890
3904,2027
3905,1946
3906,1809
3907,1883
3908,2071
3909,2021
3910,1825
3911,1779
3912,1909
3913,1891
3914,1744
3915,1718
3916,1856
3917,1888
3918,1743
3919,1677
3920,1808
3921,1875
3922,1743
3923,1651
3924,1779
3925,1898
3926,1786
3927,1665
3928,1751
3929,1893
3930,1817
3931,1662
3932,1698
3933,1831
3934,1761
3935,1641
3936,1787
3937,2186
3938,2497
3939,2624
3940,2739
3941,2870
3942,2749
3943,2445
3944,2160
3945,2015
3946,1854
3947,1618
3948,1535
3949,1743
3950,1940
3951,1879
3952,1776
3953,1854
3954,1978
3955,1889
3956,1743
3957,1788
3958,1943
3959,1907
3960,1759
3961,1776
3962,1938
3963,1947
3964,1792
3965,1750
3966,1907
3967,1955
3968,1808
3969,1743
3970,1887
3971,1979
3972,1857
3973,1770
3974,1888
3975,2009
3976,1906
3977,1789
3978,1872
3979,2023
3980,1959
3981,1826
3982,1869
3983,2038
3984,2001
3985,1850
3986,1855
3987,2032
3988,2063
3989,1917
3990,1895
3991,2062
3992,2114
3993,1980
3994,1918
3995,2069
3996,2156
3997,2034
3998,1947
3999,2068
4000,2193
4001,2098
4002,1975
4003,2063
4004,2210
4005,2131
4006,1979
4007,2006
4008,2154
4009,2097
4010,1922
4011,1909
4012,2045
4013,2014
4014,1831
4015,1771
4016,1893
4017,1914
4018,1749
4019,1663
4020,1790
4021,1862
4022,1728
4023,1620
4024,1735
4025,1859
4026,1744
4027,1605
4028,1666
4029,1813
4030,1746
4031,1603
4032,1648
4033,1813
4034,1782
4035,1631
4036,1637
4037,1799
4038,1811
4039,1663
4040,1631
4041,1794
4042,1850
4043,1714
4044,1653
4045,1793
4046,1882
4047,1750
4048,1655
4049,1776
4050,1899
4051,1793
4052,1663
4053,1742
4054,1897
4055,1834
4056,1689
4057,1729
4058,1886
4059,1857
4060,1700
4061,1690
4062,1853
4063,1872
4064,1726
4065,1686
4066,1834
4067,1882
4068,1739
4069,1675
4070,1808
4071,1898
4072,1759
4073,1649
4074,1761
4075,1886
4076,1780
4077,1656
4078,1730
4079,1875
4080,1808
4081,1665
4082,1711
4083,1870
4084,1835
4085,1680
4086,1680
4087,1851
4088,1865
4089,1712
4090,1671
4091,1819
4092,1863
4093,1723
4094,1650
4095,1787
4096,1875
4097,1754
4098,1665
4099,1776
4100,1899
4101,1790
4102,1653
4103,1731
4104,1880
4105,1814
4106,1677
4107,1723
4108,1878
4109,1844
4110,1680
4111,1684
4112,1857
4113,1873
4114,1719
4115,1675
4116,1830
4117,1881
4118,1739
4119,1669
4120,1809
4121,1903
4122,1776
4123,1661
4124,1763
4125,1898
4126,1805
4127,1680
4128,1747
4129,1887
4130,1817
4131,1667
4132,1697
4133,1866
4134,1872
4135,1758
4136,1774
4137,1943
4138,1968
4139,1808
4140,1749
4141,1904
4142,1968
4143,1841
4144,1782
4145,1895
4146,1946
4147,1771
4148,1626
4149,1729
4150,1862
4151,1763
4152,1620
4153,1679
4154,1824
4155,1755
4156,1595
4157,1616
4158,1782
4159,1759
4160,1609
4161,1591
4162,1751
4163,1755
4164,1614
4165,1584
4166,1735
4167,1777
4168,1616
4169,1501
4170,1600
4171,1728
4172,1741
4173,1877
4174,2279
4175,2692
4176,2741
4177,2546
4178,2451
4179,2461
4180,2190
4181,1759
4182,1535
4183,1600
4184,1601
4185,1522
4186,1593
4187,1783
4188,1817
4189,1658
4190,1600
4191,1738
4192,1792
4193,1652
4194,1566
4195,1682
4196,1779
4197,1659
4198,1535
4199,1649
4200,1769
4201,1685
4202,1573
4203,1630
4204,1775
4205,1722
4206,1584
4207,1607
4208,1756
4209,1742
4210,1601
4211,1596
4212,1750
4213,1782
4214,1646
4215,1593
4216,1728
4217,1789
4218,1674
4219,1602
4220,1722
4221,1817
4222,1707
4223,1611
4224,1711
4225,1827
4226,1750
4227,1634
4228,1705
4229,1854
4230,1813
4231,1673
4232,1708
4233,1866
4234,1863
4235,1722
4236,1711
4237,1854
4238,1867
4239,1741
4240,1703
4241,1839
4242,1885
4243,1747
4244,1658
4245,1748
4246,1807
4247,1671
4248,1535
4249,1599
4250,1680
4251,1565
4252,1410
4253,1436
4254,1535
4255,1485
4256,1338
4257,1344
4258,1472
4259,1447
4260,1309
4261,1282
4262,1421
4263,1439
4264,1301
4265,1240
4266,1360
4267,1419
4268,1301
4269,1226
4270,1331
4271,1424
4272,1329
4273,1228
4274,1314
4275,1431
4276,1362
4277,1246
4278,1292
4279,1424
4280,1392
4281,1264
4282,1284
4283,1426
4284,1417
4285,1282
4286,1264
4287,1382
4288,1409
4289,1287
4290,1232
4291,1348
4292,1413
4293,1306
4294,1217
4295,1311
4296,1407
4297,1313
4298,1203
4299,1277
4300,1385
4301,1322
4302,1201
4303,1236
4304,1366
4305,1328
4306,1200
4307,1215
4308,1344
4309,1345
4310,1227
4311,1201
4312,1327
4313,1360
4314,1251
4315,1200
4316,1311
4317,1367
4318,1269
4319,1201
4320,1296
4321,1390
4322,1317
4323,1216
4324,1273
4325,1378
4326,1313
4327,1206
4328,1249
4329,1373
4330,1354
4331,1244
4332,1251
4333,1386
4334,1392
4335,1277
4336,1254
4337,1375
4338,1403
4339,1290
4340,1242
4341,1360
4342,1433
4343,1344
4344,1266
4345,1348
4346,1434
4347,1360
4348,1277
4349,1346
4350,1450
4351,1397
4352,1298
4353,1337
4354,1456
4355,1430
4356,1318
4357,1325
4358,1451
4359,1461
4360,1347
4361,1328
4362,1452
4363,1482
4364,1371
4365,1327
4366,1437
4367,1514
4368,1424
4369,1354
4370,1443
4371,1556
4372,1514
4373,1457
4374,1535
4375,1662
4376,1607
4377,1488
4378,1530
4379,1663
4380,1664
4381,1587
4382,1596
4383,1680
4384,1623
4385,1477
4386,1435
4387,1567
4388,1617
4389,1515
4390,1449
4391,1535
4392,1617
4393,1513
4394,1424
4395,1494
4396,1594
4397,1530
4398,1449
4399,1507
4400,1629
4401,1588
4402,1488
4403,1527
4404,1654
4405,1623
4406,1488
4407,1463
4408,1595
4409,1703
4410,1793
4411,2065
4412,2480
4413,2723
4414,2635
4415,2442
4416,2413
4417,2316
4418,1978
4419,1639
4420,1561
4421,1631
4422,1627
4423,1623
4424,1737
4425,1864
4426,1827
4427,1733
4428,1747
4429,1861
4430,1843
4431,1742
4432,1745
4433,1868
4434,1872
4435,1760
4436,1730
4437,1856
4438,1915
4439,1833
4440,1789
4441,1890
4442,1962
4443,1885
4444,1811
4445,1895
4446,1988
4447,1924
4448,1838
4449,1899
4450,2010
4451,1983
4452,1890
4453,1923
4454,2042
4455,2031
4456,1936
4457,1950
4458,2086
4459,2107
4460,2005
4461,1987
4462,2109
4463,2147
4464,2054
4465,1997
4466,2112
4467,2189
4468,2119
4469,2054
4470,2147
4471,2256
4472,2206
4473,2131
4474,2189
4475,2291
4476,2258
4477,2167
4478,2186
4479,2304
4480,2288
4481,2175
4482,2159
4483,2247
4484,2239
4485,2115
4486,2047
4487,2128
4488,2144
4489,2021
4490,1939
4491,2002
4492,2061
4493,1968
4494,1881
4495,1951
4496,2032
4497,1968
4498,1872
4499,1918
4500,2027
4501,1983
4502,1878
4503,1901
4504,2003
4505,1984
4506,1885
4507,1892
4508,2014
4509,2025
4510,1919
4511,1892
4512,2007
4513,2063
4514,1969
4515,1921
4516,2025
4517,2096
4518,2011
4519,1937
4520,2020
4521,2113
4522,2055
4523,1963
4524,2017
4525,2129
4526,2085
4527,1975
4528,1994
4529,2112
4530,2105
4531,2000
4532,1994
4533,2108
4534,2119
4535,2012
4536,1983
4537,2093
4538,2130
4539,2032
4540,1963
4541,2054
4542,2129
4543,2058
4544,1983
4545,2068
4546,2155
4547,2081
4548,1984
4549,2036
4550,2147
4551,2107
4552,1991
4553,2023
4554,2149
4555,2144
4556,2029
4557,2009
4558,2122
4559,2137
4560,2031
4561,2000
4562,2118
4563,2167
4564,2074
4565,2004
4566,2095
4567,2171
4568,2087
4569,2000
4570,2090
4571,2185
4572,2128
4573,2023
4574,2074
4575,2183
4576,2146
4577,2038
4578,2074
4579,2185
4580,2164
4581,2062
4582,2057
4583,2176
4584,2193
4585,2081
4586,2042
4587,2160
4588,2199
4589,2106
4590,2045
4591,2144
4592,2225
4593,2141
4594,2057
4595,2129
4596,2228
4597,2166
4598,2071
4599,2122
4600,2225
4601,2186
4602,2081
4603,2101
4604,2222
4605,2205
4606,2095
4607,2083
4608,2210
4609,2254
4610,2174
4611,2160
4612,2288
4613,2342
4614,2233
4615,2173
4616,2277
4617,2361
4618,2300
4619,2234
4620,2278
4621,2323
4622,2218
4623,2096
4624,2147
4625,2259
4626,2205
4627,2083
4628,2097
4629,2210
4630,2197
4631,2064
4632,2038
4633,2160
4634,2179
4635,2083
4636,2045
4637,2169
4638,2219
4639,2111
4640,2039
4641,2135
4642,2214
4643,2125
4644,2017
4645,2055
4646,2183
4647,2245
4648,2375
4649,2743
4650,3215
4651,3343
4652,3102
4653,2896
4654,2858
4655,2633
4656,2270
4657,2037
4658,2045
4659,2067
4660,2021
4661,2043
4662,2208
4663,2278
4664,2171
4665,2097
4666,2186
4667,2258
4668,2171
4669,2085
4670,2159
4671,2253
4672,2187
4673,2085
4674,2133
4675,2249
4676,2206
4677,2095
4678,2114
4679,2239
4680,2225
4681,2119
4682,2113
4683,2238
4684,2259
4685,2157
4686,2112
4687,2227
4688,2286
4689,2182
4690,2117
4691,2211
4692,2288
4693,2205
4694,2122
4695,2199
4696,2310
4697,2240
4698,2145
4699,2201
4700,2334
4701,2305
4702,2195
4703,2210
4704,2335
4705,2334
4706,2224
4707,2210
4708,2341
4709,2371
4710,2272
4711,2236
4712,2352
4713,2407
4714,2310
4715,2251
4716,2336
4717,2413
4718,2320
4719,2222
4720,2273
4721,2349
4722,2252
4723,2112
4724,2118
4725,2203
4726,2148
4727,2011
4728,1998
4729,2093
4730,2069
4731,1939
4732,1897
4733,2003
4734,2023
4735,1912
4736,1857
4737,1967
4738,2018
4739,1911
4740,1835
4741,1922
4742,2001
4743,1923
4744,1834
4745,1904
4746,2011
4747,1944
4748,1845
4749,1892
4750,2013
4751,1973
4752,1857
4753,1869
4754,1990
4755,1985
4756,1871
4757,1863
4758,1999
4759,2027
4760,1915
4761,1859
4762,1967
4763,2031
4764,1926
4765,1856
4766,1947
4767,2031
4768,1937
4769,1843
4770,1918
4771,2017
4772,1943
4773,1851
4774,1899
4775,2013
4776,1967
4777,1841
4778,1855
4779,1982
4780,1975
4781,1862
4782,1839
4783,1956
4784,1981
4785,1868
4786,1799
4787,1910
4788,1963
4789,1853
4790,1777
4791,1873
4792,1959
4793,1877
4794,1783
4795,1853
4796,1968
4797,1907
4798,1791
4799,1825
4800,1951
4801,1920
4802,1798
4803,1808
4804,1943
4805,1939
4806,1810
4807,1787
4808,1915
4809,1950
4810,1845
4811,1792
4812,1903
4813,1967
4814,1863
4815,1779
4816,1878
4817,1969
4818,1873
4819,1763
4820,1830
4821,1936
4822,1878
4823,1775
4824,1823
4825,1949
4826,1911
4827,1791
4828,1795
4829,1923
4830,1925
4831,1799
4832,1777
4833,1910
4834,1942
4835,1819
4836,1771
4837,1890
4838,1958
4839,1853
4840,1773
4841,1867
4842,1961
4843,1875
4844,1771
4845,1840
4846,1967
4847,1936
4848,1847
4849,1905
4850,2043
4851,2010
4852,1879
4853,1891
4854,2033
4855,2038
4856,1936
4857,1930
4858,2043
4859,2036
4860,1869
4861,1780
4862,1884
4863,1952
4864,1842
4865,1751
4866,1840
4867,1933
4868,1840
4869,1729
4870,1787
4871,1901
4872,1829
4873,1711
4874,1754
4875,1893
4876,1858
4877,1739
4878,1746
4879,1874
4880,1872
4881,1741
4882,1690
4883,1798
4884,1883
4885,1910
4886,2096
4887,2523
4888,2879
4889,2887
4890,2706
4891,2595
4892,2512
4893,2205
4894,1842
4895,1714
4896,1745
4897,1709
4898,1661
4899,1763
4900,1937
4901,1936
4902,1814
4903,1805
4904,1925
4905,1923
4906,1804
4907,1776
4908,1901
4909,1936
4910,1823
4911,1773
4912,1887
4913,1959
4914,1856
4915,1775
4916,1869
4917,1962
4918,1873
4919,1776
4920,1856
4921,1983
4922,1933
4923,1809
4924,1845
4925,1988
4926,1958
4927,1835
4928,1841
4929,1982
4930,1995
4931,1877
4932,1858
4933,1987
4934,2030
4935,1919
4936,1874
4937,1995
4938,2084
4939,1979
4940,1904
4941,2009
4942,2123
4943,2047
4944,1939
4945,2010
4946,2141
4947,2093
4948,1972
4949,2007
4950,2157
4951,2144
4952,2021
4953,2023
4954,2160
4955,2153
4956,2015
4957,1964
4958,2075
4959,2096
4960,1942
4961,1870
4962,1961
4963,2001
4964,1862
4965,1743
4966,1808
4967,1892
4968,1788
4969,1666
4970,1726
4971,1835
4972,1762
4973,1638
4974,1666
4975,1798
4976,1775
4977,1648
4978,1634
4979,1776
4980,1792
4981,1662
4982,1623
4983,1757
4984,1805
4985,1687
4986,1618
4987,1733
4988,1823
4989,1727
4990,1637
4991,1725
4992,1834
4993,1762
4994,1661
4995,1729
4996,1851
4997,1793
4998,1670
4999,1705
5000,1853
5001,1837
5002,1711
5003,1698
5004,1835
5005,1846
5006,1723
5007,1695
5008,1810
5009,1856
5010,1744
5011,1679
5012,1791
5013,1868
5014,1760
5015,1666
5016,1750
5017,1853
5018,1776
5019,1668
5020,1728
5021,1850
5022,1801
5023,1666
5024,1691
5025,1828
5026,1806
5027,1677
5028,1678
5029,1811
5030,1829
5031,1700
5032,1667
5033,1788
5034,1840
5035,1725
5036,1657
5037,1777
5038,1863
5039,1757
5040,1655
5041,1734
5042,1840
5043,1769
5044,1663
5045,1724
5046,1851
5047,1789
5048,1659
5049,1697
5050,1848
5051,1829
5052,1701
5053,1691
5054,1821
5055,1829
5056,1712
5057,1687
5058,1815
5059,1862
5060,1744
5061,1669
5062,1783
5063,1867
5064,1772
5065,1678
5066,1759
5067,1870
5068,1794
5069,1695
5070,1760
5071,1879
5072,1833
5073,1711
5074,1731
5075,1863
5076,1856
5077,1737
5078,1728
5079,1856
5080,1869
5081,1743
5082,1700
5083,1835
5084,1897
5085,1776
5086,1698
5087,1808
5088,1898
5089,1788
5090,1687
5091,1786
5092,1903
5093,1833
5094,1714
5095,1779
5096,1945
5097,1936
5098,1845
5099,1881
5100,2002
5101,1969
5102,1838
5103,1834
5104,1983
5105,2030
5106,1905
5107,1844
5108,1910
5109,1904
5110,1777
5111,1713
5112,1833
5113,1907
5114,1781
5115,1680
5116,1778
5117,1883
5118,1795
5119,1671
5120,1728
5121,1868
5122,1814
5123,1683
5124,1711
5125,1853
5126,1838
5127,1709
5128,1695
5129,1824
5130,1821
5131,1660
5132,1627
5133,1872
5134,2153
5135,2343
5136,2559
5137,2864
5138,2966
5139,2672
5140,2389
5141,2279
5142,2128
5143,1790
5144,1526
5145,1568
5146,1785
5147,1834
5148,1771
5149,1809
5150,1950
5151,1931
5152,1802
5153,1773
5154,1904
5155,1915
5156,1785
5157,1738
5158,1863
5159,1925
5160,1811
5161,1749
5162,1866
5163,1958
5164,1857
5165,1749
5166,1841
5167,1968
5168,1900
5169,1778
5170,1838
5171,1968
5172,1920
5173,1797
5174,1823
5175,1970
5176,1968
5177,1853
5178,1845
5179,1990
5180,2021
5181,1903
5182,1858
5183,1985
5184,2064
5185,1959
5186,1883
5187,1988
5188,2094
5189,1997
5190,1904
5191,1997
5192,2128
5193,2073
5194,1968
5195,2027
5196,2167
5197,2140
5198,2025
5199,2042
5200,2189
5201,2173
5202,2032
5203,2010
5204,2149
5205,2163
5206,2014
5207,1938
5208,2029
5209,2059
5210,1915
5211,1797
5212,1874
5213,1943
5214,1823
5215,1696
5216,1746
5217,1838
5218,1749
5219,1627
5220,1673
5221,1793
5222,1749
5223,1625
5224,1644
5225,1779
5226,1771
5227,1633
5228,1610
5229,1744
5230,1781
5231,1659
5232,1616
5233,1739
5234,1808
5235,1710
5236,1630
5237,1726
5238,1813
5239,1727
5240,1630
5241,1716
5242,1845
5243,1772
5244,1645
5245,1693
5246,1829
5247,1793
5248,1664
5249,1685
5250,1837
5251,1835
5252,1710
5253,1686
5254,1829
5255,1861
5256,1728
5257,1663
5258,1788
5259,1863
5260,1747
5261,1664
5262,1767
5263,1869
5264,1775
5265,1666
5266,1742
5267,1862
5268,1791
5269,1669
5270,1715
5271,1851
5272,1804
5273,1669
5274,1680
5275,1823
5276,1812
5277,1680
5278,1648
5279,1790
5280,1831
5281,1712
5282,1669
5283,1791
5284,1856
5285,1745
5286,1659
5287,1757
5288,1854
5289,1770
5290,1672
5291,1744
5292,1867
5293,1791
5294,1663
5295,1697
5296,1833
5297,1799
5298,1680
5299,1697
5300,1840
5301,1838
5302,1711
5303,1687
5304,1822
5305,1857
5306,1731
5307,1675
5308,1791
5309,1856
5310,1748
5311,1670
5312,1773
5313,1873
5314,1787
5315,1679
5316,1749
5317,1874
5318,1813
5319,1695
5320,1743
5321,1872
5322,1831
5323,1703
5324,1713
5325,1855
5326,1851
5327,1728
5328,1712
5329,1842
5330,1871
5331,1750
5332,1700
5333,1826
5334,1904
5335,1797
5336,1712
5337,1808
5338,1897
5339,1805
5340,1715
5341,1811
5342,1962
5343,1920
5344,1825
5345,1872
5346,2003
5347,1974
5348,1850
5349,1870
5350,2030
5351,2045
5352,1898
5353,1820
5354,1905
5355,1909
5356,1778
5357,1723
5358,1841
5359,1893
5360,1774
5361,1695
5362,1793
5363,1878
5364,1787
5365,1683
5366,1751
5367,1871
5368,1799
5369,1676
5370,1727
5371,1872
5372,1841
5373,1711
5374,1710
5375,1840
5376,1816
5377,1651
5378,1651
5379,1922
5380,2207
5381,2394
5382,2628
5383,2911
5384,2944
5385,2638
5386,2389
5387,2262
5388,2082
5389,1755
5390,1535
5391,1634
5392,1835
5393,1856
5394,1786
5395,1840
5396,1965
5397,1919
5398,1783
5399,1791
5400,1926
5401,1923
5402,1793
5403,1767
5404,1909
5405,1953
5406,1827
5407,1775
5408,1891
5409,1961
5410,1844
5411,1751
5412,1863
5413,1973
5414,1887
5415,1779
5416,1856
5417,1983
5418,1936
5419,1823
5420,1867
5421,2013
5422,1995
5423,1866
5424,1867
5425,2000
5426,2003
5427,1879
5428,1868
5429,2011
5430,2059
5431,1936
5432,1878
5433,2006
5434,2096
5435,1994
5436,1920
5437,2019
5438,2123
5439,2039
5440,1943
5441,2025
5442,2163
5443,2113
5444,2000
5445,2042
5446,2179
5447,2146
5448,2005
5449,2005
5450,2143
5451,2128
5452,1969
5453,1903
5454,2001
5455,2012
5456,1860
5457,1765
5458,1854
5459,1903
5460,1766
5461,1653
5462,1735
5463,1811
5464,1706
5465,1580
5466,1638
5467,1750
5468,1680
5469,1535
5470,1575
5471,1706
5472,1679
5473,1535
5474,1558
5475,1691
5476,1689
5477,1554
5478,1513
5479,1643
5480,1687
5481,1570
5482,1511
5483,1629
5484,1691
5485,1584
5486,1499
5487,1609
5488,1710
5489,1615
5490,1497
5491,1570
5492,1699
5493,1646
5494,1518
5495,1535
5496,1682
5497,1653
5498,1520
5499,1518
5500,1653
5501,1661
5502,1527
5503,1493
5504,1624
5505,1661
5506,1525
5507,1463
5508,1584
5509,1657
5510,1535
5511,1435
5512,1520
5513,1620
5514,1530
5515,1423
5516,1476
5517,1598
5518,1531
5519,1398
5520,1424
5521,1553
5522,1521
5523,1398
5524,1396
5525,1515
5526,1510
5527,1389
5528,1360
5529,1488
5530,1525
5531,1393
5532,1325
5533,1424
5534,1499
5535,1392
5536,1296
5537,1389
5538,1487
5539,1394
5540,1279
5541,1334
5542,1458
5543,1393
5544,1271
5545,1290
5546,1407
5547,1370
5548,1246
5549,1241
5550,1376
5551,1382
5552,1261
5553,1211
5554,1328
5555,1361
5556,1248
5557,1183
5558,1290
5559,1361
5560,1260
5561,1168
5562,1247
5563,1335
5564,1264
5565,1159
5566,1204
5567,1322
5568,1267
5569,1150
5570,1170
5571,1287
5572,1266
5573,1147
5574,1131
5575,1247
5576,1259
5577,1136
5578,1095
5579,1207
5580,1255
5581,1158
5582,1117
5583,1233
5584,1323
5585,1245
5586,1158
5587,1216
5588,1302
5589,1236
5590,1143
5591,1215
5592,1328
5593,1241
5594,1071
5595,1023
5596,1136
5597,1130
5598,1015
5599,998
5600,1104
5601,1113
5602,1008
5603,946
5604,1043
5605,1086
5606,976
5607,915
5608,1019
5609,1098
5610,1008
5611,917
5612,986
5613,1086
5614,1009
5615,912
5616,943
5617,1019
5618,966
5619,954
5620,1177
5621,1601
5622,1891
5623,1970
5624,1982
5625,1959
5626,1831
5627,1564
5628,1254
5629,1076
5630,947
5631,822
5632,832
5633,1021
5634,1161
5635,1104
5636,1014
5637,1085
5638,1168
5639,1093
5640,982
5641,1035
5642,1158
5643,1135
5644,1023
5645,1050
5646,1161
5647,1150
5648,1049
5649,1054
5650,1181
5651,1200
5652,1088
5653,1062
5654,1185
5655,1232
5656,1137
5657,1088
5658,1200
5659,1280
5660,1200
5661,1126
5662,1210
5663,1318
5664,1261
5665,1173
5666,1237
5667,1360
5668,1328
5669,1232
5670,1267
5671,1407
5672,1399
5673,1299
5674,1311
5675,1447
5676,1482
5677,1392
5678,1361
5679,1481
5680,1533
5681,1449
5682,1408
5683,1522
5684,1616
5685,1535
5686,1469
5687,1563
5688,1664
5689,1594
5690,1484
5691,1523
5692,1634
5693,1572
5694,1441
5695,1446
5696,1535
5697,1511
5698,1370
5699,1341
5700,1446
5701,1437
5702,1314
5703,1274
5704,1385
5705,1420
5706,1299
5707,1238
5708,1345
5709,1414
5710,1327
5711,1264
5712,1359
5713,1455
5714,1382
5715,1289
5716,1357
5717,1489
5718,1456
5719,1355
5720,1392
5721,1515
5722,1493
5723,1392
5724,1407
5725,1535
5726,1573
5727,1465
5728,1453
5729,1584
5730,1629
5731,1523
5732,1470
5733,1594
5734,1675
5735,1584
5736,1490
5737,1590
5738,1700
5739,1617
5740,1520
5741,1603
5742,1734
5743,1687
5744,1579
5745,1615
5746,1745
5747,1710
5748,1587
5749,1601
5750,1744
5751,1756
5752,1635
5753,1613
5754,1731
5755,1766
5756,1659
5757,1605
5758,1727
5759,1811
5760,1701
5761,1610
5762,1711
5763,1827
5764,1754
5765,1661
5766,1730
5767,1856
5768,1801
5769,1687
5770,1734
5771,1872
5772,1845
5773,1722
5774,1729
5775,1878
5776,1899
5777,1779
5778,1753
5779,1886
5780,1940
5781,1831
5782,1767
5783,1887
5784,1973
5785,1873
5786,1791
5787,1895
5788,2000
5789,1916
5790,1808
5791,1878
5792,2016
5793,1974
5794,1870
5795,1907
5796,2039
5797,2010
5798,1889
5799,1905
5800,2047
5801,2070
5802,1942
5803,1920
5804,2065
5805,2110
5806,1987
5807,1927
5808,2064
5809,2146
5810,2032
5811,1955
5812,2063
5813,2175
5814,2094
5815,1983
5816,2059
5817,2200
5818,2160
5819,2075
5820,2145
5821,2302
5822,2281
5823,2149
5824,2144
5825,2304
5826,2321
5827,2207
5828,2208
5829,2357
5830,2368
5831,2192
5832,2094
5833,2193
5834,2285
5835,2181
5836,2091
5837,2178
5838,2288
5839,2202
5840,2078
5841,2128
5842,2245
5843,2183
5844,2075
5845,2126
5846,2263
5847,2231
5848,2105
5849,2096
5850,2256
5851,2270
5852,2130
5853,2082
5854,2185
5855,2230
5856,2202
5857,2347
5858,2786
5859,3287
5860,3413
5861,3269
5862,3175
5863,3088
5864,2768
5865,2415
5866,2255
5867,2240
5868,2139
5869,2057
5870,2150
5871,2347
5872,2349
5873,2224
5874,2221
5875,2367
5876,2382
5877,2246
5878,2215
5879,2357
5880,2402
5881,2259
5882,2190
5883,2325
5884,2416
5885,2304
5886,2224
5887,2323
5888,2441
5889,2369
5890,2261
5891,2329
5892,2461
5893,2398
5894,2265
5895,2305
5896,2453
5897,2429
5898,2307
5899,2317
5900,2467
5901,2480
5902,2348
5903,2320
5904,2470
5905,2512
5906,2384
5907,2329
5908,2463
5909,2556
5910,2448
5911,2374
5912,2485
5913,2609
5914,2512
5915,2407
5916,2493
5917,2635
5918,2583
5919,2455
5920,2506
5921,2666
5922,2640
5923,2487
5924,2486
5925,2640
5926,2667
5927,2529
5928,2487
5929,2621
5930,2649
5931,2480
5932,2379
5933,2477
5934,2539
5935,2400
5936,2288
5937,2367
5938,2453
5939,2336
5940,2195
5941,2247
5942,2380
5943,2307
5944,2173
5945,2205
5946,2350
5947,2311
5948,2169
5949,2167
5950,2319
5951,2320
5952,2177
5953,2160
5954,2311
5955,2361
5956,2227
5957,2160
5958,2288
5959,2377
5960,2260
5961,2163
5962,2272
5963,2384
5964,2288
5965,2163
5966,2240
5967,2384
5968,2336
5969,2210
5970,2241
5971,2390
5972,2361
5973,2227
5974,2223
5975,2367
5976,2373
5977,2241
5978,2210
5979,2352
5980,2390
5981,2256
5982,2187
5983,2322
5984,2409
5985,2288
5986,2189
5987,2274
5988,2383
5989,2293
5990,2183
5991,2248
5992,2384
5993,2313
5994,2173
5995,2213
5996,2363
5997,2336
5998,2192
5999,2177
6000,2327
6001,2338
6002,2194
6003,2161
6004,2303
6005,2358
6006,2224
6007,2145
6008,2259
6009,2349
6010,2238
6011,2146
6012,2243
6013,2359
6014,2259
6015,2141
6016,2203
6017,2346
6018,2289
6019,2153
6020,2182
6021,2337
6022,2309
6023,2165
6024,2171
6025,2314
6026,2314
6027,2176
6028,2145
6029,2285
6030,2329
6031,2189
6032,2119
6033,2251
6034,2341
6035,2227
6036,2127
6037,2224
6038,2339
6039,2245
6040,2128
6041,2180
6042,2320
6043,2260
6044,2128
6045,2159
6046,2304
6047,2281
6048,2143
6049,2139
6050,2287
6051,2291
6052,2159
6053,2113
6054,2267
6055,2351
6056,2251
6057,2201
6058,2322
6059,2396
6060,2272
6061,2176
6062,2282
6063,2417
6064,2337
6065,2210
6066,2235
6067,2308
6068,2209
6069,2067
6070,2114
6071,2256
6072,2219
6073,2069
6074,2067
6075,2206
6076,2209
6077,2064
6078,2001
6079,2135
6080,2178
6081,2037
6082,1975
6083,2101
6084,2183
6085,2070
6086,1962
6087,2063
6088,2167
6089,2064
6090,1909
6091,2010
6092,2290
6093,2482
6094,2672
6095,3007
6096,3394
6097,3260
6098,2826
6099,2624
6100,2538
6101,2286
6102,1923
6103,1793
6104,1953
6105,2086
6106,2031
6107,2001
6108,2134
6109,2221
6110,2096
6111,1978
6112,2071
6113,2186
6114,2103
6115,1983
6116,2047
6117,2188
6118,2119
6119,1975
6120,2000
6121,2160
6122,2139
6123,1999
6124,1983
6125,2145
6126,2159
6127,2011
6128,1975
6129,2115
6130,2167
6131,2038
6132,1968
6133,2096
6134,2199
6135,2096
6136,1984
6137,2089
6138,2217
6139,2135
6140,2012
6141,2085
6142,2223
6143,2172
6144,2037
6145,2073
6146,2229
6147,2226
6148,2095
6149,2085
6150,2233
6151,2264
6152,2142
6153,2112
6154,2256
6155,2319
6156,2187
6157,2112
6158,2231
6159,2322
6160,2213
6161,2115
6162,2201
6163,2305
6164,2193
6165,2045
6166,2091
6167,2199
6168,2110
6169,1936
6170,1924
6171,2047
6172,1995
6173,1840
6174,1803
6175,1931
6176,1936
6177,1797
6178,1743
6179,1863
6180,1911
6181,1778
6182,1691
6183,1806
6184,1890
6185,1775
6186,1667
6187,1758
6188,1885
6189,1808
6190,1680
6191,1733
6192,1873
6193,1825
6194,1686
6195,1708
6196,1869
6197,1854
6198,1713
6199,1695
6200,1843
6201,1871
6202,1733
6203,1696
6204,1829
6205,1889
6206,1774
6207,1697
6208,1818
6209,1910
6210,1799
6211,1689
6212,1777
6213,1901
6214,1805
6215,1671
6216,1735
6217,1886
6218,1840
6219,1707
6220,1726
6221,1869
6222,1846
6223,1693
6224,1680
6225,1833
6226,1859
6227,1725
6228,1682
6229,1823
6230,1872
6231,1734
6232,1654
6233,1776
6234,1873
6235,1761
6236,1652
6237,1744
6238,1868
6239,1779
6240,1652
6241,1712
6242,1855
6243,1795
6244,1647
6245,1667
6246,1814
6247,1809
6248,1663
6249,1669
6250,1825
6251,1849
6252,1710
6253,1662
6254,1801
6255,1859
6256,1732
6257,1655
6258,1776
6259,1867
6260,1757
6261,1650
6262,1747
6263,1871
6264,1777
6265,1657
6266,1723
6267,1869
6268,1812
6269,1679
6270,1697
6271,1840
6272,1815
6273,1681
6274,1685
6275,1851
6276,1865
6277,1717
6278,1669
6279,1806
6280,1860
6281,1727
6282,1655
6283,1781
6284,1875
6285,1774
6286,1665
6287,1758
6288,1885
6289,1797
6290,1664
6291,1726
6292,1872
6293,1821
6294,1686
6295,1719
6296,1871
6297,1870
6298,1757
6299,1776
6300,1949
6301,1984
6302,1840
6303,1776
6304,1914
6305,1984
6306,1870
6307,1818
6308,1936
6309,1993
6310,1826
6311,1683
6312,1763
6313,1887
6314,1805
6315,1664
6316,1703
6317,1841
6318,1794
6319,1660
6320,1679
6321,1822
6322,1801
6323,1659
6324,1649
6325,1809
6326,1831
6327,1689
6328,1639
6329,1785
6330,1850
6331,1705
6332,1589
6333,1680
6334,1792
6335,1791
6336,1909
6337,2309
6338,2743
6339,2853
6340,2711
6341,2604
6342,2592
6343,2337
6344,1905
6345,1664
6346,1693
6347,1677
6348,1603
6349,1674
6350,1874
6351,1928
6352,1789
6353,1728
6354,1847
6355,1897
6356,1761
6357,1681
6358,1808
6359,1915
6360,1808
6361,1698
6362,1794
6363,1920
6364,1837
6365,1716
6366,1783
6367,1931
6368,1872
6369,1729
6370,1749
6371,1911
6372,1907
6373,1767
6374,1759
6375,1918
6376,1948
6377,1810
6378,1764
6379,1904
6380,1977
6381,1853
6382,1771
6383,1902
6384,2016
6385,1919
6386,1813
6387,1908
6388,2059
6389,1987
6390,1867
6391,1922
6392,2082
6393,2041
6394,1922
6395,1953
6396,2116
6397,2119
6398,1982
6399,1968
6400,2131
6401,2157
6402,2015
6403,1962
6404,2109
6405,2172
6406,2030
6407,1928
6408,2032
6409,2112
6410,1975
6411,1837
6412,1885
6413,1976
6414,1865
6415,1711
6416,1739
6417,1854
6418,1783
6419,1631
6420,1645
6421,1792
6422,1767
6423,1611
6424,1586
6425,1746
6426,1786
6427,1644
6428,1582
6429,1714
6430,1787
6431,1661
6432,1575
6433,1690
6434,1791
6435,1680
6436,1567
6437,1660
6438,1791
6439,1721
6440,1601
6441,1658
6442,1808
6443,1758
6444,1613
6445,1641
6446,1808
6447,1792
6448,1649
6449,1639
6450,1795
6451,1828
6452,1680
6453,1627
6454,1783
6455,1861
6456,1727
6457,1635
6458,1747
6459,1851
6460,1755
6461,1649
6462,1743
6463,1860
6464,1778
6465,1648
6466,1705
6467,1854
6468,1793
6469,1646
6470,1665
6471,1840
6472,1829
6473,1680
6474,1662
6475,1811
6476,1841
6477,1698
6478,1641
6479,1776
6480,1843
6481,1715
6482,1634
6483,1751
6484,1853
6485,1743
6486,1638
6487,1723
6488,1856
6489,1776
6490,1648
6491,1705
6492,1850
6493,1798
6494,1654
6495,1680
6496,1841
6497,1835
6498,1679
6499,1654
6500,1809
6501,1843
6502,1708
6503,1653
6504,1793
6505,1869
6506,1742
6507,1658
6508,1774
6509,1871
6510,1767
6511,1659
6512,1739
6513,1875
6514,1807
6515,1675
6516,1722
6517,1874
6518,1829
6519,1687
6520,1712
6521,1866
6522,1845
6523,1712
6524,1702
6525,1855
6526,1885
6527,1735
6528,1680
6529,1815
6530,1885
6531,1757
6532,1675
6533,1799
6534,1904
6535,1791
6536,1680
6537,1777
6538,1919
6539,1862
6540,1759
6541,1837
6542,2001
6543,1971
6544,1819
6545,1835
6546,2000
6547,1994
6548,1853
6549,1861
6550,2010
6551,2000
6552,1799
6553,1709
6554,1842
6555,1925
6556,1791
6557,1694
6558,1797
6559,1903
6560,1787
6561,1664
6562,1744
6563,1875
6564,1793
6565,1657
6566,1707
6567,1856
6568,1803
6569,1657
6570,1672
6571,1827
6572,1842
6573,1706
6574,1665
6575,1788
6576,1806
6577,1759
6578,1898
6579,2333
6580,2717
6581,2790
6582,2714
6583,2701
6584,2659
6585,2372
6586,1982
6587,1788
6588,1760
6589,1649
6590,1585
6591,1732
6592,1937
6593,1920
6594,1789
6595,1790
6596,1929
6597,1909
6598,1770
6599,1749
6600,1903
6601,1933
6602,1790
6603,1732
6604,1879
6605,1953
6606,1827
6607,1744
6608,1867
6609,1971
6610,1860
6611,1744
6612,1831
6613,1971
6614,1902
6615,1777
6616,1830
6617,1971
6618,1936
6619,1803
6620,1829
6621,1995
6622,1999
6623,1859
6624,1841
6625,1995
6626,2031
6627,1900
6628,1849
6629,2003
6630,2095
6631,1968
6632,1885
6633,2000
6634,2117
6635,2026
6636,1923
6637,2021
6638,2162
6639,2092
6640,1963
6641,2021
6642,2181
6643,2153
6644,2017
6645,2029
6646,2192
6647,2182
6648,2027
6649,1983
6650,2121
6651,2128
6652,1955
6653,1863
6654,1969
6655,2014
6656,1854
6657,1735
6658,1827
6659,1913
6660,1786
6661,1651
6662,1721
6663,1841
6664,1761
6665,1621
6666,1670
6667,1810
6668,1765
6669,1616
6670,1623
6671,1781
6672,1790
6673,1644
6674,1618
6675,1771
6676,1799
6677,1655
6678,1601
6679,1744
6680,1827
6681,1713
6682,1619
6683,1727
6684,1838
6685,1731
6686,1623
6687,1715
6688,1846
6689,1770
6690,1648
6691,1709
6692,1870
6693,1830
6694,1686
6695,1693
6696,1840
6697,1846
6698,1711
6699,1685
6700,1840
6701,1872
6702,1742
6703,1671
6704,1806
6705,1875
6706,1748
6707,1660
6708,1759
6709,1857
6710,1763
6711,1663
6712,1744
6713,1877
6714,1808
6715,1677
6716,1714
6717,1858
6718,1814
6719,1679
6720,1682
6721,1827
6722,1833
6723,1691
6724,1675
6725,1822
6726,1846
6727,1706
6728,1648
6729,1776
6730,1854
6731,1739
6732,1641
6733,1758
6734,1873
6735,1776
6736,1669
6737,1750
6738,1875
6739,1797
6740,1665
6741,1715
6742,1865
6743,1827
6744,1686
6745,1698
6746,1849
6747,1853
6748,1712
6749,1683
6750,1823
6751,1857
6752,1730
6753,1675
6754,1799
6755,1871
6756,1749
6757,1675
6758,1789
6759,1902
6760,1808
6761,1698
6762,1770
6763,1891
6764,1818
6765,1689
6766,1731
6767,1877
6768,1849
6769,1712
6770,1723
6771,1881
6772,1885
6773,1743
6774,1712
6775,1855
6776,1899
6777,1763
6778,1698
6779,1829
6780,1907
6781,1781
6782,1686
6783,1795
6784,1933
6785,1874
6786,1792
6787,1886
6788,2029
6789,1953
6790,1815
6791,1862
6792,2018
6793,1998
6794,1879
6795,1885
6796,1997
6797,1941
6798,1764
6799,1721
6800,1871
6801,1913
6802,1775
6803,1701
6804,1823
6805,1896
6806,1766
6807,1661
6808,1759
6809,1870
6810,1783
6811,1674
6812,1744
6813,1873
6814,1812
6815,1686
6816,1730
6817,1877
6818,1839
6819,1679
6820,1653
6821,1811
6822,1927
6823,2000
6824,2269
6825,2704
6826,2941
6827,2791
6828,2551
6829,2532
6830,2442
6831,2065
6832,1712
6833,1666
6834,1766
6835,1738
6836,1706
6837,1831
6838,1993
6839,1931
6840,1783
6841,1812
6842,1957
6843,1931
6844,1805
6845,1826
6846,1990
6847,2005
6848,1866
6849,1845
6850,1999
6851,2046
6852,1905
6853,1842
6854,1979
6855,2075
6856,1952
6857,1860
6858,1958
6859,2080
6860,1998
6861,1895
6862,1971
6863,2122
6864,2064
6865,1933
6866,1984
6867,2151
6868,2128
6869,1984
6870,1983
6871,2137
6872,2154
6873,2018
6874,1991
6875,2149
6876,2202
6877,2075
6878,2011
6879,2150
6880,2251
6881,2146
6882,2054
6883,2148
6884,2275
6885,2198
6886,2090
6887,2149
6888,2275
6889,2229
6890,2107
6891,2133
6892,2273
6893,2234
6894,2083
6895,2066
6896,2195
6897,2193
6898,2023
6899,1949
6900,2064
6901,2091
6902,1935
6903,1838
6904,1931
6905,2000
6906,1878
6907,1771
6908,1852
6909,1959
6910,1863
6911,1744
6912,1808
6913,1942
6914,1872
6915,1728
6916,1762
6917,1921
6918,1904
6919,1761
6920,1758
6921,1911
6922,1923
6923,1785
6924,1743
6925,1879
6926,1936
6927,1808
6928,1744
6929,1872
6930,1971
6931,1872
6932,1772
6933,1871
6934,1997
6935,1910
6936,1797
6937,1869
6938,2013
6939,1957
6940,1830
6941,1866
6942,2003
6943,1974
6944,1837
6945,1835
6946,1991
6947,1997
6948,1840
6949,1795
6950,1941
6951,1988
6952,1861
6953,1789
6954,1911
6955,1987
6956,1867
6957,1766
6958,1870
6959,1984
6960,1882
6961,1754
6962,1824
6963,1963
6964,1893
6965,1754
6966,1780
6967,1936
6968,1908
6969,1760
6970,1749
6971,1904
6972,1923
6973,1777
6974,1733
6975,1865
6976,1924
6977,1804
6978,1731
6979,1854
6980,1939
6981,1826
6982,1721
6983,1813
6984,1938
6985,1865
6986,1746
6987,1799
6988,1938
6989,1881
6990,1734
6991,1761
6992,1918
6993,1908
6994,1773
6995,1755
6996,1899
6997,1935
6998,1815
6999,1791
7000,1947
7001,2000
7002,1855
7003,1778
7004,1909
7005,1998
7006,1872
7007,1774
7008,1873
7009,2005
7010,1919
7011,1792
7012,1862
7013,2006
7014,1947
7015,1808
7016,1846
7017,2023
7018,2021
7019,1892
7020,1901
7021,2075
7022,2085
7023,1915
7024,1881
7025,2054
7026,2130
7027,2005
7028,1909
7029,1985
7030,2032
7031,1893
7032,1777
7033,1861
7034,1975
7035,1875
7036,1744
7037,1814
7038,1955
7039,1879
7040,1735
7041,1770
7042,1921
7043,1898
7044,1743
7045,1728
7046,1889
7047,1914
7048,1774
7049,1722
7050,1842
7051,1875
7052,1723
7053,1625
7054,1779
7055,2006
7056,2127
7057,2326
7058,2706
7059,3005
7060,2857
7061,2533
7062,2437
7063,2396
7064,2126
7065,1767
7066,1650
7067,1774
7068,1797
7069,1712
7070,1751
7071,1923
7072,1950
7073,1805
7074,1763
7075,1903
7076,1959
7077,1819
7078,1739
7079,1856
7080,1948
7081,1840
7082,1739
7083,1839
7084,1967
7085,1878
7086,1751
7087,1808
7088,1962
7089,1915
7090,1781
7091,1809
7092,1973
7093,1951
7094,1806
7095,1795
7096,1949
7097,1971
7098,1840
7099,1800
7100,1949
7101,2019
7102,1904
7103,1833
7104,1951
7105,2044
7106,1927
7107,1830
7108,1936
7109,2069
7110,1985
7111,1869
7112,1938
7113,2096
7114,2037
7115,1905
7116,1935
7117,2103
7118,2095
7119,1951
7120,1946
7121,2114
7122,2146
7123,2001
7124,1946
7125,2085
7126,2140
7127,1994
7128,1895
7129,2000
7130,2083
7131,1937
7132,1805
7133,1872
7134,1968
7135,1861
7136,1712
7137,1742
7138,1869
7139,1798
7140,1648
7141,1665
7142,1825
7143,1805
7144,1652
7145,1639
7146,1790
7147,1807
7148,1655
7149,1611
7150,1744
7151,1808
7152,1689
7153,1620
7154,1743
7155,1830
7156,1722
7157,1621
7158,1717
7159,1840
7160,1751
7161,1637
7162,1709
7163,1858
7164,1808
7165,1677
7166,1707
7167,1853
7168,1834
7169,1685
7170,1681
7171,1837
7172,1854
7173,1721
7174,1675
7175,1812
7176,1878
7177,1751
7178,1674
7179,1791
7180,1886
7181,1782
7182,1685
7183,1767
7184,1876
7185,1775
7186,1654
7187,1726
7188,1874
7189,1826
7190,1680
7191,1712
7192,1863
7193,1830
7194,1691
7195,1674
7196,1835
7197,1858
7198,1707
7199,1666
7200,1810
7201,1872
7202,1732
7203,1648
7204,1767
7205,1874
7206,1762
7207,1667
7208,1766
7209,1885
7210,1788
7211,1650
7212,1717
7213,1855
7214,1798
7215,1659
7216,1671
7217,1833
7218,1835
7219,1696
7220,1684
7221,1850
7222,1869
7223,1719
7224,1675
7225,1824
7226,1884
7227,1738
7228,1648
7229,1773
7230,1866
7231,1754
7232,1676
7233,1767
7234,1890
7235,1795
7236,1677
7237,1747
7238,1915
7239,1877
7240,1770
7241,1821
7242,1979
7243,1952
7244,1797
7245,1797
7246,1963
7247,1999
7248,1875
7249,1837
7250,1953
7251,1957
7252,1762
7253,1680
7254,1821
7255,1920
7256,1790
7257,1653
7258,1743
7259,1872
7260,1775
7261,1647
7262,1701
7263,1845
7264,1792
7265,1649
7266,1678
7267,1821
7268,1802
7269,1665
7270,1675
7271,1839
7272,1840
7273,1667
7274,1594
7275,1742
7276,1879
7277,1938
7278,2171
7279,2621
7280,2930
7281,2821
7282,2551
7283,2465
7284,2407
7285,2070
7286,1695
7287,1600
7288,1711
7289,1678
7290,1615
7291,1712
7292,1899
7293,1887
7294,1735
7295,1715
7296,1873
7297,1890
7298,1744
7299,1697
7300,1831
7301,1887
7302,1769
7303,1697
7304,1827
7305,1924
7306,1801
7307,1693
7308,1799
7309,1922
7310,1830
7311,1707
7312,1786
7313,1938
7314,1878
7315,1742
7316,1775
7317,1936
7318,1916
7319,1773
7320,1767
7321,1927
7322,1964
7323,1831
7324,1783
7325,1930
7326,1984
7327,1856
7328,1785
7329,1919
7330,2005
7331,1897
7332,1807
7333,1909
7334,2030
7335,1950
7336,1840
7337,1911
7338,2067
7339,2019
7340,1878
7341,1904
7342,2064
7343,2044
7344,1898
7345,1891
7346,2059
7347,2063
7348,1897
7349,1833
7350,1958
7351,1987
7352,1829
7353,1723
7354,1813
7355,1872
7356,1735
7357,1601
7358,1667
7359,1771
7360,1675
7361,1524
7362,1567
7363,1702
7364,1647
7365,1495
7366,1510
7367,1659
7368,1641
7369,1488
7370,1478
7371,1637
7372,1659
7373,1505
7374,1457
7375,1594
7376,1648
7377,1519
7378,1454
7379,1579
7380,1669
7381,1559
7382,1456
7383,1559
7384,1680
7385,1597
7386,1471
7387,1527
7388,1670
7389,1616
7390,1478
7391,1503
7392,1654
7393,1641
7394,1499
7395,1489
7396,1648
7397,1670
7398,1530
7399,1477
7400,1613
7401,1673
7402,1554
7403,1474
7404,1579
7405,1663
7406,1535
7407,1446
7408,1535
7409,1665
7410,1584
7411,1463
7412,1514
7413,1647
7414,1590
7415,1461
7416,1483
7417,1627
7418,1615
7419,1483
7420,1466
7421,1607
7422,1630
7423,1499
7424,1447
7425,1573
7426,1635
7427,1526
7428,1458
7429,1559
7430,1642
7431,1535
7432,1439
7433,1524
7434,1648
7435,1584
7436,1463
7437,1508
7438,1639
7439,1591
7440,1456
7441,1472
7442,1625
7443,1616
7444,1487
7445,1485
7446,1637
7447,1661
7448,1527
7449,1481
7450,1611
7451,1665
7452,1535
7453,1472
7454,1584
7455,1665
7456,1571
7457,1472
7458,1559
7459,1680
7460,1617
7461,1494
7462,1535
7463,1666
7464,1618
7465,1499
7466,1516
7467,1664
7468,1673
7469,1588
7470,1599
7471,1750
7472,1793
7473,1688
7474,1627
7475,1733
7476,1793
7477,1700
7478,1660
7479,1776
7480,1831
7481,1678
7482,1529
7483,1589
7484,1700
7485,1642
7486,1526
7487,1567
7488,1680
7489,1645
7490,1519
7491,1520
7492,1648
7493,1642
7494,1511
7495,1494
7496,1632
7497,1652
7498,1535
7499,1506
7500,1621
7501,1671
7502,1557
7503,1459
7504,1531
7505,1600
7506,1597
7507,1698
7508,2082
7509,2519
7510,2708
7511,2669
7512,2590
7513,2512
7514,2293
7515,1895
7516,1616
7517,1557
7518,1494
7519,1443
7520,1521
7521,1722
7522,1785
7523,1694
7524,1645
7525,1741
7526,1771
7527,1665
7528,1602
7529,1701
7530,1797
7531,1712
7532,1619
7533,1694
7534,1790
7535,1728
7536,1631
7537,1679
7538,1805
7539,1776
7540,1679
7541,1699
7542,1822
7543,1823
7544,1722
7545,1718
7546,1847
7547,1879
7548,1779
7549,1744
7550,1859
7551,1922
7552,1840
7553,1786
7554,1884
7555,1968
7556,1892
7557,1817
7558,1886
7559,1991
7560,1949
7561,1863
7562,1907
7563,2032
7564,2015
7565,1918
7566,1936
7567,2064
7568,2073
7569,1968
7570,1962
7571,2095
7572,2126
7573,2007
7574,1969
7575,2085
7576,2143
7577,2039
7578,1963
7579,2034
7580,2096
7581,1977
7582,1857
7583,1897
7584,1973
7585,1885
7586,1757
7587,1767
7588,1855
7589,1798
7590,1674
7591,1669
7592,1783
7593,1776
7594,1659
7595,1641
7596,1748
7597,1771
7598,1669
7599,1638
7600,1743
7601,1791
7602,1697
7603,1626
7604,1725
7605,1808
7606,1737
7607,1658
7608,1722
7609,1803
7610,1744
7611,1661
7612,1715
7613,1840
7614,1808
7615,1712
7616,1727
7617,1841
7618,1841
7619,1743
7620,1738
7621,1857
7622,1873
7623,1776
7624,1744
7625,1851
7626,1903
7627,1811
7628,1757
7629,1845
7630,1911
7631,1825
7632,1753
7633,1834
7634,1922
7635,1871
7636,1776
7637,1810
7638,1919
7639,1883
7640,1777
7641,1800
7642,1911
7643,1898
7644,1788
7645,1779
7646,1891
7647,1909
7648,1803
7649,1776
7650,1890
7651,1938
7652,1850
7653,1787
7654,1868
7655,1937
7656,1861
7657,1781
7658,1855
7659,1947
7660,1883
7661,1790
7662,1837
7663,1951
7664,1919
7665,1821
7666,1843
7667,1959
7668,1939
7669,1837
7670,1828
7671,1946
7672,1968
7673,1859
7674,1826
7675,1949
7676,1991
7677,1889
7678,1830
7679,1925
7680,1989
7681,1907
7682,1836
7683,1906
7684,2000
7685,1936
7686,1840
7687,1886
7688,2002
7689,1973
7690,1868
7691,1875
7692,1989
7693,1971
7694,1867
7695,1866
7696,1982
7697,1991
7698,1889
7699,1865
7700,1971
7701,2016
7702,1921
7703,1867
7704,1957
7705,2027
7706,1947
7707,1886
7708,1963
7709,2064
7710,2007
7711,1949
7712,2032
7713,2162
7714,2133
7715,2019
7716,2035
7717,2160
7718,2146
7719,2047
7720,2065
7721,2171
7722,2137
7723,1967
7724,1902
7725,2001
7726,2063
7727,1966
7728,1898
7729,1971
7730,2041
7731,1956
7732,1864
7733,1925
7734,2015
7735,1965
7736,1874
7737,1922
7738,2027
7739,1975
7740,1873
7741,1898
7742,2014
7743,2000
7744,1892
7745,1860
7746,1943
7747,1969
7748,1990
7749,2182
7750,2603
7751,2961
7752,3065
7753,2974
7754,2896
7755,2798
7756,2493
7757,2125
7758,1933
7759,1893
7760,1831
7761,1815
7762,1953
7763,2112
7764,2087
7765,1982
7766,1986
7767,2091
7768,2067
7769,1957
7770,1957
7771,2079
7772,2089
7773,1974
7774,1939
7775,2059
7776,2096
7777,2001
7778,1961
7779,2063
7780,2123
7781,2032
7782,1951
7783,2031
7784,2128
7785,2069
7786,1991
7787,2058
7788,2167
7789,2128
7790,2021
7791,2032
7792,2151
7793,2142
7794,2045
7795,2046
7796,2163
7797,2185
7798,2083
7799,2054
7800,2163
7801,2208
7802,2134
7803,2095
7804,2192
7805,2271
7806,2207
7807,2143
7808,2219
7809,2305
7810,2242
7811,2155
7812,2215
7813,2331
7814,2294
7815,2195
7816,2223
7817,2335
7818,2315
7819,2194
7820,2169
7821,2263
7822,2244
7823,2112
7824,2043
7825,2115
7826,2123
7827,1988
7828,1907
7829,1978
7830,2023
7831,1920
7832,1818
7833,1877
7834,1954
7835,1890
7836,1802
7837,1838
7838,1931
7839,1882
7840,1776
7841,1799
7842,1905
7843,1891
7844,1778
7845,1777
7846,1904
7847,1914
7848,1818
7849,1788
7850,1897
7851,1933
7852,1840
7853,1791
7854,1882
7855,1938
7856,1863
7857,1783
7858,1860
7859,1947
7860,1884
7861,1791
7862,1841
7863,1947
7864,1907
7865,1810
7866,1852
7867,1982
7868,1966
7869,1851
7870,1844
7871,1955
7872,1955
7873,1843
7874,1824
7875,1936
7876,1975
7877,1877
7878,1815
7879,1904
7880,1968
7881,1889
7882,1810
7883,1886
7884,1967
7885,1899
7886,1801
7887,1856
7888,1955
7889,1904
7890,1799
7891,1834
7892,1951
7893,1930
7894,1822
7895,1819
7896,1927
7897,1923
7898,1810
7899,1794
7900,1909
7901,1942
7902,1837
7903,1783
7904,1877
7905,1935
7906,1847
7907,1777
7908,1856
7909,1933
7910,1866
7911,1776
7912,1840
7913,1950
7914,1901
7915,1798
7916,1839
7917,1953
7918,1921
7919,1808
7920,1808
7921,1923
7922,1926
7923,1819
7924,1805
7925,1920
7926,1943
7927,1844
7928,1794
7929,1887
7930,1946
7931,1854
7932,1789
7933,1872
7934,1953
7935,1879
7936,1791
7937,1855
7938,1957
7939,1904
7940,1808
7941,1847
7942,1957
7943,1921
7944,1813
7945,1827
7946,1942
7947,1936
7948,1827
7949,1809
7950,1919
7951,1946
7952,1843
7953,1796
7954,1903
7955,1957
7956,1868
7957,1804
7958,1902
7959,2002
7960,1952
7961,1886
7962,1967
7963,2074
7964,2000
7965,1898
7966,1954
7967,2087
7968,2077
7969,1975
7970,1963
7971,2034
7972,1973
7973,1829
7974,1805
7975,1929
7976,1953
7977,1840
7978,1786
7979,1891
7980,1941
7981,1839
7982,1757
7983,1840
7984,1922
7985,1841
7986,1755
7987,1814
7988,1919
7989,1870
7990,1775
7991,1819
7992,1925
7993,1863
7994,1715
7995,1712
7996,1870
7997,2000
7998,2134
7999,2422
8000,2826
8001,3017
8002,2831
8003,2597
8004,2544
8005,2396
8006,2029
8007,1732
8008,1699
8009,1776
8010,1760
8011,1762
8012,1891
8013,2014
8014,1948
8015,1825
8016,1858
8017,1961
8018,1920
8019,1808
8020,1823
8021,1947
8022,1938
8023,1823
8024,1807
8025,1926
8026,1955
8027,1852
8028,1815
8029,1936
8030,1991
8031,1894
8032,1826
8033,1918
8034,2000
8035,1920
8036,1854
8037,1943
8038,2043
8039,1978
8040,1875
8041,1925
8042,2047
8043,2019
8044,1918
8045,1947
8046,2083
8047,2070
8048,1946
8049,1943
8050,2082
8051,2113
8052,2000
8053,1975
8054,2102
8055,2158
8056,2057
8057,2000
8058,2111
8059,2192
8060,2110
8061,2017
8062,2107
8063,2222
8064,2167
8065,2069
8066,2112
8067,2223
8068,2171
8069,2038
8070,2043
8071,2144
8072,2096
8073,1947
8074,1904
8075,1999
8076,1984
8077,1843
8078,1787
8079,1888
8080,1916
8081,1789
8082,1711
8083,1791
8084,1856
8085,1753
8086,1665
8087,1751
8088,1851
8089,1781
8090,1680
8091,1721
8092,1826
8093,1781
8094,1675
8095,1707
8096,1829
8097,1808
8098,1683
8099,1682
8100,1829
8101,1850
8102,1726
8103,1686
8104,1792
8105,1838
8106,1744
8107,1689
8108,1801
8109,1874
8110,1776
8111,1700
8112,1780
8113,1880
8114,1808
8115,1712
8116,1775
8117,1891
8118,1838
8119,1717
8120,1744
8121,1865
8122,1846
8123,1734
8124,1730
8125,1855
8126,1862
8127,1744
8128,1713
8129,1835
8130,1872
8131,1755
8132,1686
8133,1781
8134,1850
8135,1763
8136,1692
8137,1786
8138,1881
8139,1791
8140,1685
8141,1743
8142,1857
8143,1809
8144,1697
8145,1727
8146,1853
8147,1834
8148,1712
8149,1702
8150,1830
8151,1834
8152,1725
8153,1704
8154,1826
8155,1867
8156,1755
8157,1691
8158,1788
8159,1858
8160,1761
8161,1684
8162,1774
8163,1868
8164,1782
8165,1679
8166,1743
8167,1859
8168,1804
8169,1687
8170,1726
8171,1861
8172,1843
8173,1722
8174,1710
8175,1841
8176,1845
8177,1731
8178,1703
8179,1827
8180,1849
8181,1746
8182,1680
8183,1791
8184,1868
8185,1771
8186,1690
8187,1789
8188,1877
8189,1791
8190,1693
8191,1759
8192,1885
8193,1831
8194,1717
8195,1747
8196,1872
8197,1840
8198,1714
8199,1741
8200,1907
8201,1939
8202,1840
8203,1822
8204,1948
8205,1985
8206,1874
8207,1825
8208,1940
8209,2027
8210,1936
8211,1850
8212,1898
8213,1936
8214,1822
8215,1712
8216,1797
8217,1919
8218,1843
8219,1724
8220,1749
8221,1867
8222,1823
8223,1699
8224,1698
8225,1837
8226,1842
8227,1723
8228,1698
8229,1831
8230,1854
8231,1731
8232,1680
8233,1803
8234,1857
8235,1728
8236,1623
8237,1779
8238,2031
8239,2195
8240,2409
8241,2743
8242,2994
8243,2833
8244,2498
8245,2368
8246,2288
8247,2014
8248,1698
8249,1601
8250,1733
8251,1793
8252,1723
8253,1742
8254,1883
8255,1920
8256,1805
8257,1747
8258,1857
8259,1920
8260,1814
8261,1741
8262,1822
8263,1917
8264,1839
8265,1747
8266,1833
8267,1947
8268,1881
8269,1770
8270,1808
8271,1934
8272,1909
8273,1801
8274,1814
8275,1942
8276,1938
8277,1818
8278,1806
8279,1937
8280,1978
8281,1859
8282,1818
8283,1937
8284,2007
8285,1904
8286,1840
8287,1943
8288,2033
8289,1950
8290,1865
8291,1941
8292,2069
8293,2003
8294,1899
8295,1940
8296,2074
8297,2039
8298,1936
8299,1961
8300,2112
8301,2112
8302,1991
8303,1983
8304,2116
8305,2134
8306,2017
8307,1983
8308,2114
8309,2176
8310,2058
8311,1946
8312,2011
8313,2076
8314,1959
8315,1839
8316,1881
8317,1963
8318,1865
8319,1723
8320,1758
8321,1872
8322,1815
8323,1685
8324,1700
8325,1823
8326,1807
8327,1675
8328,1645
8329,1767
8330,1791
8331,1674
8332,1628
8333,1757
8334,1815
8335,1703
8336,1639
8337,1740
8338,1828
8339,1732
8340,1627
8341,1712
8342,1819
8343,1752
8344,1648
8345,1699
8346,1822
8347,1785
8348,1676
8349,1695
8350,1833
8351,1826
8352,1707
8353,1702
8354,1840
8355,1866
8356,1755
8357,1711
8358,1818
8359,1872
8360,1766
8361,1694
8362,1797
8363,1878
8364,1791
8365,1694
8366,1774
8367,1871
8368,1787
8369,1676
8370,1730
8371,1850
8372,1808
8373,1695
8374,1724
8375,1853
8376,1828
8377,1696
8378,1682
8379,1820
8380,1841
8381,1719
8382,1675
8383,1789
8384,1851
8385,1744
8386,1680
8387,1783
8388,1863
8389,1762
8390,1665
8391,1744
8392,1851
8393,1776
8394,1677
8395,1730
8396,1861
8397,1809
8398,1695
8399,1717
8400,1850
8401,1830
8402,1698
8403,1685
8404,1829
8405,1856
8406,1742
8407,1701
8408,1823
8409,1861
8410,1748
8411,1683
8412,1795
8413,1872
8414,1775
8415,1685
8416,1774
8417,1878
8418,1806
8419,1691
8420,1744
8421,1872
8422,1827
8423,1707
8424,1733
8425,1861
8426,1840
8427,1713
8428,1715
8429,1857
8430,1871
8431,1744
8432,1709
8433,1832
8434,1876
8435,1764
8436,1710
8437,1817
8438,1904
8439,1806
8440,1718
8441,1802
8442,1919
8443,1858
8444,1774
8445,1843
8446,1985
8447,1954
8448,1843
8449,1857
8450,2000
8451,1990
8452,1873
8453,1877
8454,2005
8455,1981
8456,1805
8457,1728
8458,1834
8459,1878
8460,1785
8461,1726
8462,1813
8463,1883
8464,1790
8465,1681
8466,1763
8467,1856
8468,1779
8469,1676
8470,1735
8471,1859
8472,1805
8473,1676
8474,1712
8475,1855
8476,1841
8477,1714
8478,1694
8479,1792
8480,1795
8481,1775
8482,1939
8483,2373
8484,2736
8485,2832
8486,2791
8487,2745
8488,2624
8489,2317
8490,1943
8491,1776
8492,1728
8493,1633
8494,1590
8495,1734
8496,1920
8497,1901
8498,1792
8499,1814
8500,1920
8501,1881
8502,1762
8503,1761
8504,1879
8505,1885
8506,1775
8507,1745
8508,1876
8509,1923
8510,1817
8511,1755
8512,1859
8513,1937
8514,1851
8515,1775
8516,1863
8517,1961
8518,1887
8519,1797
8520,1861
8521,1978
8522,1923
8523,1813
8524,1851
8525,1991
8526,1973
8527,1857
8528,1858
8529,1999
8530,2011
8531,1904
8532,1874
8533,2003
8534,2062
8535,1967
8536,1917
8537,2025
8538,2106
8539,2011
8540,1936
8541,2033
8542,2149
8543,2084
8544,1990
8545,2062
8546,2178
8547,2126
8548,2018
8549,2064
8550,2192
8551,2157
8552,2019
8553,2007
8554,2131
8555,2119
8556,1962
8557,1891
8558,1981
8559,1997
8560,1859
8561,1770
8562,1842
8563,1883
8564,1773
8565,1669
8566,1746
8567,1835
8568,1750
8569,1641
8570,1689
8571,1793
8572,1734
8573,1619
8574,1654
8575,1777
8576,1744
8577,1631
8578,1643
8579,1779
8580,1791
8581,1668
8582,1638
8583,1765
8584,1803
8585,1699
8586,1650
8587,1767
8588,1829
8589,1728
8590,1650
8591,1742
8592,1834
8593,1745
8594,1653
8595,1733
8596,1859
8597,1806
8598,1690
8599,1730
8600,1860
8601,1830
8602,1707
8603,1712
8604,1839
8605,1840
8606,1719
8607,1693
8608,1822
8609,1857
8610,1744
8611,1690
8612,1796
8613,1863
8614,1759
8615,1682
8616,1777
8617,1861
8618,1775
8619,1685
8620,1751
8621,1861
8622,1797
8623,1681
8624,1725
8625,1850
8626,1810
8627,1707
8628,1723
8629,1856
8630,1842
8631,1712
8632,1693
8633,1819
8634,1853
8635,1744
8636,1695
8637,1808
8638,1863
8639,1761
8640,1693
8641,1788
8642,1872
8643,1782
8644,1695
8645,1765
8646,1867
8647,1802
8648,1691
8649,1744
8650,1873
8651,1840
8652,1712
8653,1723
8654,1849
8655,1843
8656,1735
8657,1719
8658,1847
8659,1871
8660,1755
8661,1709
8662,1833
8663,1878
8664,1775
8665,1711
8666,1807
8667,1885
8668,1792
8669,1701
8670,1783
8671,1894
8672,1831
8673,1739
8674,1787
8675,1904
8676,1865
8677,1744
8678,1762
8679,1888
8680,1881
8681,1761
8682,1747
8683,1870
8684,1899
8685,1793
8686,1757
8687,1866
8688,1907
8689,1807
8690,1740
8691,1840
8692,1927
8693,1834
8694,1738
8695,1823
8696,1930
8697,1863
8698,1761
8699,1831
8700,1980
8701,1968
8702,1875
8703,1901
8704,2017
8705,2000
8706,1889
8707,1891
8708,2035
8709,2065
8710,1919
8711,1830
8712,1891
8713,1915
8714,1813
8715,1755
8716,1856
8717,1922
8718,1817
8719,1727
8720,1806
8721,1901
8722,1818
8723,1713
8724,1760
8725,1872
8726,1829
8727,1715
8728,1744
8729,1872
8730,1861
8731,1744
8732,1725
8733,1830
8734,1821
8735,1685
8736,1712
8737,1982
8738,2306
8739,2522
8740,2716
8741,2931
8742,2941
8743,2646
8744,2378
8745,2201
8746,2002
8747,1728
8748,1555
8749,1639
8750,1843
8751,1889
8752,1809
8753,1840
8754,1965
8755,1936
8756,1803
8757,1791
8758,1911
8759,1932
8760,1822
8761,1776
8762,1894
8763,1937
8764,1839
8765,1776
8766,1872
8767,1962
8768,1872
8769,1782
8770,1862
8771,1962
8772,1900
8773,1807
8774,1861
8775,1980
8776,1948
8777,1840
8778,1863
8779,1985
8780,1973
8781,1862
8782,1859
8783,1994
8784,2025
8785,1913
8786,1872
8787,1987
8788,2042
8789,1943
8790,1893
8791,2000
8792,2102
8793,2022
8794,1945
8795,2032
8796,2146
8797,2082
8798,1978
8799,2042
8800,2173
8801,2139
8802,2032
8803,2064
8804,2186
8805,2176
8806,2064
8807,2054
8808,2163
8809,2160
8810,2018
8811,1953
8812,2035
8813,2054
8814,1909
8815,1813
8816,1883
8817,1935
8818,1821
8819,1712
8820,1761
8821,1840
8822,1760
8823,1647
8824,1669
8825,1776
8826,1742
8827,1631
8828,1649
8829,1770
8830,1739
8831,1623
8832,1619
8833,1744
8834,1771
8835,1651
8836,1618
8837,1730
8838,1776
8839,1680
8840,1629
8841,1730
8842,1806
8843,1712
8844,1639
8845,1728
8846,1819
8847,1744
8848,1649
8849,1703
8850,1811
8851,1767
8852,1665
8853,1703
8854,1831
8855,1815
8856,1701
8857,1701
8858,1825
8859,1826
8860,1712
8861,1677
8862,1782
8863,1829
8864,1726
8865,1673
8866,1776
8867,1843
8868,1753
8869,1667
8870,1744
8871,1827
8872,1749
8873,1661
8874,1717
8875,1827
8876,1770
8877,1659
8878,1686
8879,1815
8880,1789
8881,1674
8882,1673
8883,1792
8884,1806
8885,1701
8886,1669
8887,1783
8888,1819
8889,1713
8890,1650
8891,1749
8892,1817
8893,1728
8894,1654
8895,1731
8896,1822
8897,1754
8898,1664
8899,1717
8900,1822
8901,1774
8902,1677
8903,1712
8904,1834
8905,1804
8906,1685
8907,1691
8908,1811
8909,1813
8910,1703
8911,1686
8912,1810
8913,1850
8914,1740
8915,1683
8916,1781
8917,1843
8918,1754
8919,1685
8920,1782
8921,1859
8922,1776
8923,1687
8924,1750
8925,1855
8926,1798
8927,1693
8928,1735
8929,1854
8930,1830
8931,1713
8932,1712
8933,1827
8934,1835
8935,1727
8936,1707
8937,1830
8938,1861
8939,1757
8940,1710
8941,1815
8942,1872
8943,1773
8944,1700
8945,1797
8946,1878
8947,1802
8948,1714
8949,1786
8950,1893
8951,1841
8952,1731
8953,1761
8954,1878
8955,1849
8956,1739
8957,1744
8958,1873
8959,1904
8960,1827
8961,1826
8962,1967
8963,2000
8964,1886
8965,1830
8966,1936
8967,2000
8968,1935
8969,1885
8970,1957
8971,1990
8972,1851
8973,1729
8974,1786
8975,1905
8976,1859
8977,1742
8978,1760
8979,1872
8980,1841
8981,1725
8982,1725
8983,1842
8984,1840
8985,1732
8986,1705
8987,1809
8988,1841
8989,1743
8990,1704
8991,1803
8992,1855
8993,1746
8994,1654
8995,1708
8996,1808
8997,1870
8998,2016
8999,2389
9000,2790
9001,2894
9002,2737
9003,2607
9004,2559
9005,2345
9006,1957
9007,1713
9008,1711
9009,1723
9010,1690
9011,1744
9012,1901
9013,1940
9014,1829
9015,1776
9016,1877
9017,1927
9018,1828
9019,1761
9020,1843
9021,1926
9022,1850
9023,1761
9024,1820
9025,1910
9026,1858
9027,1775
9028,1819
9029,1936
9030,1902
9031,1791
9032,1808
9033,1935
9034,1939
9035,1841
9036,1821
9037,1936
9038,1979
9039,1883
9040,1840
9041,1937
9042,2000
9043,1919
9044,1859
9045,1941
9046,2026
9047,1966
9048,1893
9049,1968
9050,2075
9051,2025
9052,1937
9053,1983
9054,2101
9055,2080
9056,1975
9057,1994
9058,2130
9059,2138
9060,2034
9061,2023
9062,2147
9063,2178
9064,2082
9065,2037
9066,2148
9067,2193
9068,2095
9069,2015
9070,2087
9071,2131
9072,2020
9073,1905
9074,1937
9075,2002
9076,1920
9077,1793
9078,1802
9079,1886
9080,1838
9081,1717
9082,1715
9083,1814
9084,1799
9085,1681
9086,1654
9087,1763
9088,1787
9089,1680
9090,1635
9091,1735
9092,1785
9093,1690
9094,1631
9095,1717
9096,1803
9097,1732
9098,1649
9099,1711
9100,1798
9101,1751
9102,1662
9103,1701
9104,1811
9105,1781
9106,1683
9107,1696
9108,1817
9109,1821
9110,1712
9111,1698
9112,1807
9113,1825
9114,1733
9115,1699
9116,1794
9117,1843
9118,1757
9119,1689
9120,1776
9121,1849
9122,1778
9123,1703
9124,1770
9125,1858
9126,1799
9127,1701
9128,1739
9129,1849
9130,1815
9131,1712
9132,1730
9133,1844
9134,1827
9135,1717
9136,1695
9137,1807
9138,1839
9139,1744
9140,1699
9141,1794
9142,1845
9143,1757
9144,1695
9145,1783
9146,1857
9147,1783
9148,1698
9149,1760
9150,1852
9151,1791
9152,1694
9153,1739
9154,1843
9155,1810
9156,1715
9157,1737
9158,1843
9159,1837
9160,1733
9161,1730
9162,1840
9163,1854
9164,1746
9165,1718
9166,1833
9167,1877
9168,1785
9169,1727
9170,1808
9171,1872
9172,1790
9173,1719
9174,1798
9175,1890
9176,1824
9177,1728
9178,1779
9179,1886
9180,1841
9181,1743
9182,1759
9183,1875
9184,1863
9185,1764
9186,1754
9187,1866
9188,1887
9189,1789
9190,1744
9191,1840
9192,1892
9193,1811
9194,1758
9195,1841
9196,1904
9197,1826
9198,1746
9199,1826
9200,1917
9201,1857
9202,1766
9203,1808
9204,1904
9205,1869
9206,1774
9207,1791
9208,1909
9209,1904
9210,1793
9211,1779
9212,1889
9213,1905
9214,1808
9215,1795
9216,1939
9217,2015
9218,1940
9219,1893
9220,1971
9221,2037
9222,1968
9223,1894
9224,1977
9225,2084
9226,2001
9227,1873
9228,1871
9229,1937
9230,1887
9231,1797
9232,1817
9233,1915
9234,1890
9235,1791
9236,1783
9237,1886
9238,1886
9239,1776
9240,1739
9241,1844
9242,1891
9243,1798
9244,1739
9245,1826
9246,1890
9247,1815
9248,1737
9249,1786
9250,1845
9251,1757
9252,1695
9253,1875
9254,2224
9255,2496
9256,2682
9257,2851
9258,2918
9259,2719
9260,2463
9261,2258
9262,2107
9263,1876
9264,1661
9265,1631
9266,1810
9267,1925
9268,1872
9269,1822
9270,1910
9271,1972
9272,1886
9273,1805
9274,1863
9275,1948
9276,1888
9277,1803
9278,1859
9279,1959
9280,1923
9281,1826
9282,1843
9283,1958
9284,1937
9285,1831
9286,1830
9287,1950
9288,1966
9289,1872
9290,1838
9291,1938
9292,1979
9293,1895
9294,1853
9295,1949
9296,2017
9297,1939
9298,1877
9299,1955
9300,2044
9301,1977
9302,1887
9303,1947
9304,2063
9305,2029
9306,1936
9307,1965
9308,2093
9309,2080
9310,1979
9311,1977
9312,2097
9313,2108
9314,2015
9315,2009
9316,2133
9317,2189
9318,2097
9319,2047
9320,2148
9321,2211
9322,2124
9323,2042
9324,2121
9325,2193
9326,2114
9327,2003
9328,2028
9329,2096
9330,2001
9331,1871
9332,1872
9333,1963
9334,1919
9335,1792
9336,1775
9337,1864
9338,1855
9339,1742
9340,1698
9341,1798
9342,1836
9343,1739
9344,1685
9345,1770
9346,1827
9347,1745
9348,1680
9349,1746
9350,1825
9351,1760
9352,1673
9353,1729
9354,1840
9355,1781
9356,1682
9357,1718
9358,1839
9359,1823
9360,1727
9361,1742
9362,1853
9363,1858
9364,1755
9365,1735
9366,1843
9367,1867
9368,1775
9369,1729
9370,1817
9371,1872
9372,1783
9373,1723
9374,1807
9375,1878
9376,1803
9377,1717
9378,1773
9379,1872
9380,1824
9381,1731
9382,1757
9383,1863
9384,1831
9385,1728
9386,1728
9387,1840
9388,1840
9389,1742
9390,1723
9391,1831
9392,1856
9393,1760
9394,1714
9395,1809
9396,1859
9397,1763
9398,1695
9399,1783
9400,1871
9401,1807
9402,1713
9403,1761
9404,1854
9405,1808
9406,1707
9407,1743
9408,1856
9409,1827
9410,1719
9411,1722
9412,1827
9413,1839
9414,1745
9415,1734
9416,1837
9417,1846
9418,1749
9419,1712
9420,1808
9421,1856
9422,1776
9423,1713
9424,1792
9425,1866
9426,1795
9427,1717
9428,1786
9429,1879
9430,1819
9431,1725
9432,1769
9433,1872
9434,1840
9435,1735
9436,1747
9437,1871
9438,1866
9439,1756
9440,1735
9441,1846
9442,1870
9443,1770
9444,1730
9445,1830
9446,1889
9447,1803
9448,1734
9449,1813
9450,1891
9451,1824
9452,1744
9453,1808
9454,1904
9455,1845
9456,1753
9457,1802
9458,1904
9459,1862
9460,1755
9461,1763
9462,1879
9463,1882
9464,1789
9465,1794
9466,1931
9467,1978
9468,1903
9469,1870
9470,1953
9471,1990
9472,1914
9473,1857
9474,1962
9475,2045
9476,1957
9477,1831
9478,1838
9479,1894
9480,1846
9481,1773
9482,1809
9483,1898
9484,1847
9485,1748
9486,1763
9487,1863
9488,1840
9489,1734
9490,1725
9491,1835
9492,1845
9493,1744
9494,1711
9495,1824
9496,1873
9497,1789
9498,1718
9499,1792
9500,1842
9501,1730
9502,1680
9503,1867
9504,2185
9505,2448
9506,2655
9507,2859
9508,2927
9509,2722
9510,2473
9511,2279
9512,2112
9513,1865
9514,1638
9515,1632
9516,1814
9517,1903
9518,1843
9519,1826
9520,1930
9521,1963
9522,1856
9523,1786
9524,1863
9525,1929
9526,1858
9527,1788
9528,1856
9529,1938
9530,1872
9531,1782
9532,1830
9533,1941
9534,1911
9535,1814
9536,1829
9537,1937
9538,1929
9539,1841
9540,1833
9541,1938
9542,1965
9543,1873
9544,1841
9545,1942
9546,1990
9547,1903
9548,1856
9549,1948
9550,2023
9551,1951
9552,1871
9553,1939
9554,2047
9555,2000
9556,1910
9557,1959
9558,2078
9559,2054
9560,1955
9561,1983
9562,2102
9563,2103
9564,1999
9565,2001
9566,2133
9567,2156
9568,2042
9569,2017
9570,2128
9571,2178
9572,2094
9573,2032
9574,2119
9575,2164
9576,2066
9577,1957
9578,2004
9579,2064
9580,1968
9581,1843
9582,1867
9583,1936
9584,1867
9585,1751
9586,1747
9587,1840
9588,1809
9589,1697
9590,1670
9591,1786
9592,1799
9593,1694
9594,1651
9595,1750
9596,1781
9597,1686
9598,1634
9599,1722
9600,1783
9601,1712
9602,1649
9603,1729
9604,1804
9605,1738
9606,1647
9607,1699
9608,1808
9609,1772
9610,1679
9611,1696
9612,1807
9613,1790
9614,1694
9615,1687
9616,1803
9617,1821
9618,1727
9619,1705
9620,1807
9621,1839
9622,1744
9623,1695
9624,1787
9625,1835
9626,1750
9627,1680
9628,1739
9629,1833
9630,1774
9631,1685
9632,1741
9633,1834
9634,1777
9635,1680
9636,1705
9637,1810
9638,1793
9639,1695
9640,1695
9641,1797
9642,1805
9643,1698
9644,1681
9645,1794
9646,1825
9647,1724
9648,1672
9649,1771
9650,1829
9651,1747
9652,1673
9653,1744
9654,1823
9655,1757
9656,1674
9657,1728
9658,1825
9659,1771
9660,1680
9661,1708
9662,1817
9663,1797
9664,1691
9665,1691
9666,1803
9667,1805
9668,1712
9669,1698
9670,1802
9671,1823
9672,1723
9673,1680
9674,1786
9675,1841
9676,1756
9677,1689
9678,1773
9679,1845
9680,1767
9681,1681
9682,1744
9683,1841
9684,1803
9685,1707
9686,1743
9687,1843
9688,1812
9689,1710
9690,1713
9691,1830
9692,1832
9693,1726
9694,1708
9695,1809
9696,1842
9697,1753
9698,1712
9699,1805
9700,1855
9701,1767
9702,1701
9703,1782
9704,1861
9705,1789
9706,1696
9707,1755
9708,1859
9709,1815
9710,1719
9711,1757
9712,1872
9713,1857
9714,1786
9715,1823
9716,1956
9717,1955
9718,1840
9719,1815
9720,1936
9721,1970
9722,1886
9723,1862
9724,1950
9725,1959
9726,1815
9727,1715
9728,1795
9729,1883
9730,1824
9731,1721
9732,1759
9733,1856
9734,1811
9735,1703
9736,1728
9737,1823
9738,1789
9739,1687
9740,1702
9741,1813
9742,1813
9743,1712
9744,1695
9745,1812
9746,1838
9747,1711
9748,1633
9749,1703
9750,1794
9751,1845
9752,2020
9753,2411
9754,2765
9755,2832
9756,2679
9757,2559
9758,2522
9759,2283
9760,1923
9761,1722
9762,1717
9763,1701
9764,1662
9765,1727
9766,1879
9767,1901
9768,1802
9769,1775
9770,1869
9771,1882
9772,1776
9773,1735
9774,1844
9775,1906
9776,1827
9777,1751
9778,1822
9779,1898
9780,1825
9781,1751
9782,1821
9783,1918
9784,1874
9785,1781
9786,1824
9787,1925
9788,1890
9789,1788
9790,1805
9791,1927
9792,1927
9793,1833
9794,1822
9795,1937
9796,1959
9797,1869
9798,1823
9799,1912
9800,1967
9801,1890
9802,1841
9803,1942
9804,2031
9805,1958
9806,1883
9807,1950
9808,2043
9809,1989
9810,1910
9811,1974
9812,2106
9813,2082
9814,1979
9815,1984
9816,2106
9817,2110
9818,2017
9819,2014
9820,2130
9821,2151
9822,2036
9823,1982
9824,2071
9825,2096
9826,1969
9827,1873
9828,1936
9829,1998
9830,1903
9831,1791
9832,1817
9833,1881
9834,1808
9835,1699
9836,1727
9837,1819
9838,1776
9839,1669
9840,1675
9841,1781
9842,1781
9843,1679
9844,1660
9845,1763
9846,1779
9847,1676
9848,1645
9849,1751
9850,1797
9851,1708
9852,1649
9853,1741
9854,1803
9855,1733
9856,1678
9857,1754
9858,1843
9859,1786
9860,1695
9861,1742
9862,1840
9863,1805
9864,1698
9865,1714
9866,1827
9867,1827
9868,1731
9869,1725
9870,1831
9871,1842
9872,1744
9873,1700
9874,1801
9875,1846
9876,1764
9877,1708
9878,1791
9879,1861
9880,1783
9881,1706
9882,1775
9883,1850
9884,1787
9885,1698
9886,1750
9887,1857
9888,1821
9889,1719
9890,1743
9891,1845
9892,1827
9893,1724
9894,1722
9895,1829
9896,1842
9897,1744
9898,1710
9899,1813
9900,1863
9901,1764
9902,1704
9903,1798
9904,1863
9905,1776
9906,1697
9907,1766
9908,1851
9909,1795
9910,1712
9911,1771
9912,1868
9913,1819
9914,1713
9915,1744
9916,1863
9917,1844
9918,1744
9919,1743
9920,1845
9921,1850
9922,1754
9923,1744
9924,1847
9925,1885
9926,1774
9927,1714
9928,1818
9929,1882
9930,1808
9931,1741
9932,1821
9933,1904
9934,1836
9935,1744
9936,1792
9937,1891
9938,1843
9939,1748
9940,1774
9941,1893
9942,1877
9943,1771
9944,1771
9945,1876
9946,1883
9947,1782
9948,1773
9949,1878
9950,1913
9951,1811
9952,1759
9953,1862
9954,1936
9955,1872
9956,1817
9957,1904
9958,2011
9959,1953
9960,1852
9961,1894
9962,1997
9963,1979
9964,1925
9965,1968
9966,2063
9967,1985
9968,1830
9969,1794
9970,1906
9971,1930
9972,1827
9973,1775
9974,1871
9975,1904
9976,1797
9977,1738
9978,1837
9979,1894
9980,1814
9981,1744
9982,1810
9983,1894
9984,1839
9985,1759
9986,1807
9987,1901
9988,1849
9989,1738
9990,1739
9991,1812
9992,1829
9993,1867
9994,2116
9995,2547
9996,2843
9997,2866
9998,2768
9999,2686
10000,2551
10001,2256
10002,1978
10003,1873
10004,1819
10005,1718
10006,1690
10007,1811
10008,1931
10009,1890
10010,1811
10011,1873
10012,1968
10013,1918
10014,1812
10015,1842
10016,1946
10017,1931
10018,1820
10019,1813
10020,1914
10021,1925
10022,1839
10023,1826
10024,1935
10025,1965
10026,1863
10027,1810
10028,1910
10029,1982
10030,1913
10031,1846
10032,1904
10033,1994
10034,1936
10035,1870
10036,1919
10037,2011
10038,1968
10039,1879
10040,1925
10041,2030
10042,2000
10043,1904
10044,1927
10045,2044
10046,2047
10047,1959
10048,1945
10049,2043
10050,2079
10051,1994
10052,1965
10053,2078
10054,2155
10055,2070
10056,1999
10057,2085
10058,2164
10059,2099
10060,2009
10061,2067
10062,2171
10063,2129
10064,2030
10065,2055
10066,2143
10067,2097
10068,1973
10069,1963
10070,2037
10071,2002
10072,1874
10073,1835
10074,1908
10075,1915
10076,1799
10077,1744
10078,1821
10079,1867
10080,1775
10081,1707
10082,1779
10083,1841
10084,1761
10085,1680
10086,1744
10087,1831
10088,1781
10089,1687
10090,1728
10091,1831
10092,1806
10093,1699
10094,1707
10095,1816
10096,1814
10097,1718
10098,1712
10099,1823
10100,1855
10101,1760
10102,1715
10103,1808
10104,1851
10105,1777
10106,1735
10107,1829
10108,1891
10109,1809
10110,1728
10111,1793
10112,1883
10113,1828
10114,1733
10115,1775
10116,1877
10117,1841
10118,1741
10119,1741
10120,1846
10121,1849
10122,1745
10123,1731
10124,1840
10125,1861
10126,1767
10127,1716
10128,1807
10129,1854
10130,1776
10131,1715
10132,1799
10133,1870
10134,1795
10135,1711
10136,1766
10137,1851
10138,1799
10139,1706
10140,1753
10141,1859
10142,1829
10143,1726
10144,1735
10145,1842
10146,1836
10147,1733
10148,1714
10149,1819
10150,1841
10151,1757
10152,1718
10153,1819
10154,1855
10155,1767
10156,1706
10157,1792
10158,1858
10159,1789
10160,1715
10161,1785
10162,1866
10163,1808
10164,1719
10165,1766
10166,1872
10167,1841
10168,1739
10169,1746
10170,1851
10171,1849
10172,1751
10173,1744
10174,1853
10175,1869
10176,1776
10177,1741
10178,1834
10179,1879
10180,1794
10181,1726
10182,1808
10183,1885
10184,1821
10185,1743
10186,1805
10187,1884
10188,1827
10189,1746
10190,1799
10191,1901
10192,1867
10193,1776
10194,1779
10195,1882
10196,1893
10197,1825
10198,1840
10199,1968
10200,1994
10201,1889
10202,1841
10203,1953
10204,2000
10205,1925
10206,1895
10207,1981
10208,2006
10209,1872
10210,1758
10211,1807
10212,1903
10213,1868
10214,1776
10215,1792
10216,1874
10217,1835
10218,1728
10219,1736
10220,1835
10221,1823
10222,1726
10223,1722
10224,1828
10225,1838
10226,1745
10227,1717
10228,1808
10229,1855
10230,1762
10231,1681
10232,1744
10233,1808
10234,1837
10235,1963
10236,2324
10237,2725
10238,2877
10239,2786
10240,2665
10241,2587
10242,2369
10243,2015
10244,1786
10245,1742
10246,1696
10247,1653
10248,1730
10249,1890
10250,1936
10251,1844
10252,1805
10253,1891
10254,1931
10255,1837
10256,1776
10257,1859
10258,1914
10259,1843
10260,1778
10261,1837
10262,1908
10263,1860
10264,1796
10265,1853
10266,1950
10267,1906
10268,1811
10269,1838
10270,1946
10271,1938
10272,1851
10273,1842
10274,1943
10275,1959
10276,1871
10277,1839
10278,1945
10279,1986
10280,1909
10281,1859
10282,1946
10283,2011
10284,1939
10285,1874
10286,1959
10287,2046
10288,2002
10289,1921
10290,1968
10291,2075
10292,2058
10293,1975
10294,2002
10295,2115
10296,2111
10297,2025
10298,2027
10299,2137
10300,2145
10301,2062
10302,2034
10303,2128
10304,2162
10305,2077
10306,2014
10307,2093
10308,2132
10309,2023
10310,1909
10311,1943
10312,2000
10313,1921
10314,1808
10315,1809
10316,1863
10317,1808
10318,1709
10319,1723
10320,1822
10321,1794
10322,1686
10323,1667
10324,1763
10325,1777
10326,1684
10327,1643
10328,1735
10329,1776
10330,1694
10331,1648
10332,1734
10333,1794
10334,1716
10335,1646
10336,1707
10337,1791
10338,1738
10339,1659
10340,1708
10341,1801
10342,1775
10343,1681
10344,1700
10345,1809
10346,1795
10347,1701
10348,1702
10349,1808
10350,1823
10351,1730
10352,1695
10353,1793
10354,1834
10355,1754
10356,1702
10357,1781
10358,1840
10359,1765
10360,1683
10361,1747
10362,1835
10363,1789
10364,1709
10365,1730
10366,1819
10367,1790
10368,1702
10369,1724
10370,1823
10371,1807
10372,1712
10373,1699
10374,1802
10375,1813
10376,1721
10377,1683
10378,1786
10379,1830
10380,1744
10381,1683
10382,1760
10383,1823
10384,1754
10385,1679
10386,1747
10387,1829
10388,1774
10389,1686
10390,1734
10391,1827
10392,1791
10393,1700
10394,1719
10395,1815
10396,1805
10397,1714
10398,1712
10399,1808
10400,1818
10401,1729
10402,1702
10403,1803
10404,1829
10405,1745
10406,1707
10407,1795
10408,1845
10409,1776
10410,1712
10411,1774
10412,1839
10413,1783
10414,1713
10415,1772
10416,1862
10417,1818
10418,1728
10419,1750
10420,1850
10421,1836
10422,1742
10423,1741
10424,1841
10425,1858
10426,1775
10427,1743
10428,1828
10429,1856
10430,1776
10431,1743
10432,1831
10433,1881
10434,1810
10435,1734
10436,1794
10437,1870
10438,1819
10439,1744
10440,1790
10441,1875
10442,1847
10443,1794
10444,1850
10445,1968
10446,1965
10447,1863
10448,1859
10449,1968
10450,1979
10451,1904
10452,1894
10453,1982
10454,1967
10455,1831
10456,1747
10457,1826
10458,1895
10459,1830
10460,1750
10461,1804
10462,1876
10463,1812
10464,1725
10465,1769
10466,1846
10467,1795
10468,1709
10469,1735
10470,1842
10471,1834
10472,1742
10473,1744
10474,1841
10475,1842
10476,1742
10477,1693
10478,1762
10479,1807
10480,1842
10481,2023
10482,2416
10483,2763
10484,2866
10485,2791
10486,2693
10487,2608
10488,2337
10489,1973
10490,1765
10491,1719
10492,1677
10493,1663
10494,1776
10495,1926
10496,1931
10497,1834
10498,1813
10499,1901
10500,1902
10501,1808
10502,1791
10503,1874
10504,1895
10505,1814
10506,1775
10507,1867
10508,1920
10509,1841
10510,1779
10511,1857
10512,1935
10513,1887
10514,1810
10515,1851
10516,1931
10517,1894
10518,1819
10519,1851
10520,1947
10521,1936
10522,1860
10523,1878
10524,1981
10525,1984
10526,1898
10527,1877
10528,1972
10529,1998
10530,1919
10531,1899
10532,1987
10533,2045
10534,1983
10535,1929
10536,2005
10537,2082
10538,2025
10539,1962
10540,2024
10541,2123
10542,2093
10543,2017
10544,2065
10545,2165
10546,2145
10547,2062
10548,2064
10549,2161
10550,2154
10551,2047
10552,2015
10553,2101
10554,2106
10555,1988
10556,1908
10557,1965
10558,1983
10559,1878
10560,1791
10561,1836
10562,1886
10563,1806
10564,1712
10565,1742
10566,1809
10567,1758
10568,1665
10569,1689
10570,1785
10571,1766
10572,1669
10573,1671
10574,1777
10575,1781
10576,1693
10577,1664
10578,1749
10579,1777
10580,1699
10581,1664
10582,1751
10583,1802
10584,1726
10585,1666
10586,1734
10587,1808
10588,1760
10589,1693
10590,1744
10591,1829
10592,1789
10593,1708
10594,1743
10595,1838
10596,1815
10597,1734
10598,1743
10599,1831
10600,1835
10601,1748
10602,1727
10603,1818
10604,1835
10605,1747
10606,1712
10607,1802
10608,1845
10609,1776
10610,1709
10611,1776
10612,1840
10613,1789
10614,1714
10615,1774
10616,1853
10617,1808
10618,1727
10619,1747
10620,1839
10621,1808
10622,1722
10623,1741
10624,1838
10625,1821
10626,1728
10627,1712
10628,1810
10629,1833
10630,1744
10631,1710
10632,1807
10633,1841
10634,1762
10635,1701
10636,1779
10637,1839
10638,1777
10639,1711
10640,1770
10641,1841
10642,1793
10643,1713
10644,1749
10645,1840
10646,1814
10647,1730
10648,1744
10649,1830
10650,1820
10651,1731
10652,1731
10653,1835
10654,1846
10655,1755
10656,1733
10657,1829
10658,1869
10659,1782
10660,1721
10661,1797
10662,1861
10663,1808
10664,1742
10665,1793
10666,1860
10667,1807
10668,1724
10669,1771
10670,1859
10671,1835
10672,1745
10673,1766
10674,1852
10675,1838
10676,1751
10677,1758
10678,1850
10679,1861
10680,1771
10681,1740
10682,1829
10683,1864
10684,1787
10685,1742
10686,1818
10687,1875
10688,1825
10689,1787
10690,1877
10691,1975
10692,1939
10693,1851
10694,1879
10695,1970
10696,1946
10697,1872
10698,1893
10699,1999
10700,1965
10701,1821
10702,1766
10703,1839
10704,1854
10705,1779
10706,1746
10707,1810
10708,1838
10709,1767
10710,1712
10711,1770
10712,1807
10713,1731
10714,1669
10715,1728
10716,1807
10717,1760
10718,1668
10719,1705
10720,1787
10721,1761
10722,1669
10723,1675
10724,1743
10725,1697
10726,1642
10727,1772
10728,2113
10729,2433
10730,2622
10731,2704
10732,2721
10733,2598
10734,2384
10735,2126
10736,1916
10737,1743
10738,1574
10739,1507
10740,1647
10741,1789
10742,1778
10743,1715
10744,1743
10745,1809
10746,1770
10747,1674
10748,1680
10749,1767
10750,1762
10751,1680
10752,1669
10753,1753
10754,1774
10755,1691
10756,1653
10757,1735
10758,1773
10759,1703
10760,1651
10761,1718
10762,1774
10763,1715
10764,1659
10765,1709
10766,1771
10767,1723
10768,1650
10769,1687
10770,1776
10771,1753
10772,1675
10773,1687
10774,1779
10775,1774
10776,1693
10777,1694
10778,1791
10779,1808
10780,1735
10781,1713
10782,1808
10783,1843
10784,1776
10785,1735
10786,1808
10787,1869
10788,1814
10789,1755
10790,1814
10791,1897
10792,1856
10793,1788
10794,1824
10795,1904
10796,1870
10797,1781
10798,1781
10799,1845
10800,1808
10801,1695
10802,1659
10803,1723
10804,1715
10805,1616
10806,1535
10807,1590
10808,1596
10809,1488
10810,1406
10811,1456
10812,1507
10813,1439
10814,1360
10815,1397
10816,1463
10817,1415
10818,1331
10819,1354
10820,1428
10821,1408
10822,1328
10823,1334
10824,1418
10825,1407
10826,1325
10827,1312
10828,1397
10829,1413
10830,1334
10831,1307
10832,1377
10833,1415
10834,1356
10835,1305
10836,1366
10837,1423
10838,1369
10839,1303
10840,1346
10841,1415
10842,1384
10843,1311
10844,1337
10845,1410
10846,1388
10847,1298
10848,1296
10849,1375
10850,1375
10851,1299
10852,1282
10853,1359
10854,1374
10855,1306
10856,1263
10857,1329
10858,1362
10859,1301
10860,1252
10861,1309
10862,1357
10863,1302
10864,1232
10865,1277
10866,1348
10867,1313
10868,1235
10869,1258
10870,1328
10871,1318
10872,1245
10873,1241
10874,1319
10875,1326
10876,1261
10877,1235
10878,1309
10879,1329
10880,1257
10881,1214
10882,1286
10883,1330
10884,1269
10885,1218
10886,1266
10887,1319
10888,1273
10889,1212
10890,1255
10891,1327
10892,1297
10893,1227
10894,1241
10895,1310
10896,1296
10897,1222
10898,1231
10899,1300
10900,1308
10901,1233
10902,1218
10903,1294
10904,1315
10905,1249
10906,1220
10907,1285
10908,1330
10909,1274
10910,1216
10911,1263
10912,1319
10913,1286
10914,1213
10915,1242
10916,1313
10917,1300
10918,1232
10919,1250
10920,1326
10921,1323
10922,1239
10923,1227
10924,1302
10925,1318
10926,1261
10927,1231
10928,1287
10929,1311
10930,1251
10931,1213
10932,1287
10933,1340
10934,1291
10935,1229
10936,1268
10937,1342
10938,1351
10939,1315
10940,1361
10941,1442
10942,1418
10943,1342
10944,1355
10945,1433
10946,1447
10947,1401
10948,1392
10949,1429
10950,1399
10951,1290
10952,1250
10953,1318
10954,1360
10955,1297
10956,1239
10957,1296
10958,1345
10959,1299
10960,1244
10961,1285
10962,1354
10963,1328
10964,1264
10965,1286
10966,1359
10967,1355
10968,1290
10969,1308
10970,1392
10971,1398
10972,1318
10973,1279
10974,1328
10975,1404
10976,1508
10977,1753
10978,2127
10979,2413
10980,2460
10981,2347
10982,2251
10983,2173
10984,1917
10985,1602
10986,1425
10987,1393
10988,1392
10989,1408
10990,1511
10991,1630
10992,1642
10993,1561
10994,1560
10995,1618
10996,1619
10997,1557
10998,1555
10999,1627
11000,1650
11001,1600
11002,1584
11003,1663
11004,1708
11005,1660
11006,1625
11007,1674
11008,1728
11009,1698
11010,1655
11011,1709
11012,1770
11013,1757
11014,1712
11015,1749
11016,1821
11017,1819
11018,1762
11019,1786
11020,1855
11021,1872
11022,1811
11023,1822
11024,1902
11025,1926
11026,1875
11027,1869
11028,1950
11029,1997
11030,1950
11031,1929
11032,1989
11033,2045
11034,2004
11035,1968
11036,2026
11037,2098
11038,2093
11039,2046
11040,2091
11041,2164
11042,2157
11043,2095
11044,2112
11045,2182
11046,2181
11047,2114
11048,2107
11049,2160
11050,2151
11051,2057
11052,1997
11053,2033
11054,2045
11055,1955
11056,1892
11057,1929
11058,1955
11059,1895
11060,1830
11061,1865
11062,1908
11063,1869
11064,1794
11065,1818
11066,1885
11067,1870
11068,1806
11069,1821
11070,1900
11071,1897
11072,1836
11073,1841
11074,1919
11075,1929
11076,1867
11077,1854
11078,1930
11079,1965
11080,1900
11081,1871
11082,1935
11083,1984
11084,1943
11085,1905
11086,1962
11087,2011
11088,1977
11089,1921
11090,1966
11091,2027
11092,2002
11093,1942
11094,1973
11095,2057
11096,2064
11097,1990
11098,1986
11099,2059
11100,2064
11101,1999
11102,2000
11103,2067
11104,2087
11105,2017
11106,1995
11107,2065
11108,2103
11109,2053
11110,2001
11111,2054
11112,2101
11113,2059
11114,2000
11115,2039
11116,2098
11117,2075
11118,2017
11119,2042
11120,2116
11121,2105
11122,2032
11123,2032
11124,2101
11125,2109
11126,2045
11127,2043
11128,2113
11129,2135
11130,2073
11131,2041
11132,2112
11133,2154
11134,2097
11135,2055
11136,2106
11137,2151
11138,2108
11139,2063
11140,2108
11141,2173
11142,2139
11143,2069
11144,2097
11145,2169
11146,2164
11147,2099
11148,2111
11149,2176
11150,2174
11151,2110
11152,2112
11153,2182
11154,2192
11155,2128
11156,2110
11157,2174
11158,2192
11159,2139
11160,2109
11161,2165
11162,2211
11163,2165
11164,2118
11165,2162
11166,2221
11167,2192
11168,2128
11169,2157
11170,2215
11171,2194
11172,2129
11173,2147
11174,2224
11175,2219
11176,2150
11177,2142
11178,2209
11179,2225
11180,2183
11181,2186
11182,2277
11183,2326
11184,2285
11185,2247
11186,2299
11187,2338
11188,2298
11189,2257
11190,2338
11191,2400
11192,2333
11193,2225
11194,2220
11195,2256
11196,2238
11197,2183
11198,2192
11199,2235
11200,2218
11201,2151
11202,2157
11203,2219
11204,2224
11205,2153
11206,2133
11207,2207
11208,2230
11209,2170
11210,2145
11211,2208
11212,2238
11213,2191
11214,2134
11215,2174
11216,2192
11217,2130
11218,2154
11219,2357
11220,2687
11221,3007
11222,3239
11223,3377
11224,3306
11225,3011
11226,2750
11227,2545
11228,2391
11229,2221
11230,2057
11231,2042
11232,2173
11233,2255
11234,2237
11235,2214
11236,2270
11237,2299
11238,2246
11239,2192
11240,2239
11241,2288
11242,2243
11243,2189
11244,2223
11245,2285
11246,2255
11247,2189
11248,2211
11249,2277
11250,2267
11251,2207
11252,2222
11253,2292
11254,2287
11255,2224
11256,2218
11257,2288
11258,2306
11259,2252
11260,2241
11261,2309
11262,2338
11263,2284
11264,2245
11265,2307
11266,2354
11267,2310
11268,2258
11269,2314
11270,2368
11271,2333
11272,2283
11273,2320
11274,2386
11275,2369
11276,2306
11277,2329
11278,2416
11279,2431
11280,2368
11281,2361
11282,2437
11283,2454
11284,2395
11285,2374
11286,2444
11287,2470
11288,2415
11289,2379
11290,2431
11291,2452
11292,2383
11293,2307
11294,2323
11295,2355
11296,2299
11297,2213
11298,2220
11299,2255
11300,2194
11301,2096
11302,2090
11303,2145
11304,2128
11305,2041
11306,2030
11307,2096
11308,2096
11309,2021
11310,1997
11311,2064
11312,2089
11313,2021
11314,1985
11315,2053
11316,2094
11317,2043
11318,1984
11319,2030
11320,2080
11321,2034
11322,1978
11323,2026
11324,2103
11325,2079
11326,2007
11327,2026
11328,2101
11329,2087
11330,2006
11331,2011
11332,2089
11333,2094
11334,2025
11335,2013
11336,2089
11337,2103
11338,2033
11339,1989
11340,2060
11341,2109
11342,2057
11343,2001
11344,2045
11345,2095
11346,2039
11347,1978
11348,2026
11349,2093
11350,2057
11351,1977
11352,1985
11353,2043
11354,2032
11355,1952
11356,1947
11357,2027
11358,2035
11359,1971
11360,1957
11361,2015
11362,2029
11363,1968
11364,1934
11365,1998
11366,2035
11367,1982
11368,1926
11369,1975
11370,2023
11371,1972
11372,1906
11373,1950
11374,2017
11375,1982
11376,1901
11377,1919
11378,1993
11379,1982
11380,1911
11381,1918
11382,1994
11383,1995
11384,1911
11385,1888
11386,1962
11387,1993
11388,1936
11389,1902
11390,1968
11391,1997
11392,1936
11393,1887
11394,1943
11395,1998
11396,1952
11397,1895
11398,1939
11399,1994
11400,1967
11401,1897
11402,1912
11403,1971
11404,1959
11405,1885
11406,1890
11407,1969
11408,1975
11409,1903
11410,1871
11411,1936
11412,1959
11413,1904
11414,1878
11415,1941
11416,1966
11417,1903
11418,1866
11419,1936
11420,1999
11421,1973
11422,1936
11423,1998
11424,2091
11425,2064
11426,1975
11427,1997
11428,2085
11429,2069
11430,2011
11431,2023
11432,2089
11433,2033
11434,1909
11435,1862
11436,1935
11437,1965
11438,1895
11439,1842
11440,1903
11441,1931
11442,1863
11443,1806
11444,1847
11445,1902
11446,1856
11447,1790
11448,1833
11449,1904
11450,1885
11451,1806
11452,1823
11453,1892
11454,1873
11455,1785
11456,1762
11457,1811
11458,1852
11459,1935
11460,2181
11461,2559
11462,2877
11463,2941
11464,2818
11465,2695
11466,2555
11467,2259
11468,1936
11469,1779
11470,1740
11471,1707
11472,1715
11473,1830
11474,1938
11475,1920
11476,1846
11477,1856
11478,1918
11479,1899
11480,1826
11481,1826
11482,1904
11483,1894
11484,1831
11485,1825
11486,1893
11487,1904
11488,1835
11489,1805
11490,1875
11491,1923
11492,1873
11493,1823
11494,1877
11495,1926
11496,1887
11497,1840
11498,1887
11499,1957
11500,1933
11501,1875
11502,1904
11503,1968
11504,1951
11505,1872
11506,1883
11507,1968
11508,1982
11509,1912
11510,1905
11511,1990
11512,2015
11513,1953
11514,1925
11515,2004
11516,2054
11517,1995
11518,1967
11519,2039
11520,2107
11521,2059
11522,1999
11523,2064
11524,2129
11525,2096
11526,2021
11527,2065
11528,2133
11529,2111
11530,2019
11531,2014
11532,2077
11533,2042
11534,1937
11535,1906
11536,1963
11537,1953
11538,1845
11539,1781
11540,1822
11541,1839
11542,1759
11543,1697
11544,1733
11545,1774
11546,1719
11547,1650
11548,1690
11549,1757
11550,1718
11551,1645
11552,1659
11553,1728
11554,1707
11555,1641
11556,1663
11557,1743
11558,1737
11559,1658
11560,1645
11561,1728
11562,1745
11563,1669
11564,1646
11565,1721
11566,1755
11567,1696
11568,1655
11569,1723
11570,1776
11571,1723
11572,1677
11573,1715
11574,1776
11575,1735
11576,1673
11577,1718
11578,1792
11579,1760
11580,1686
11581,1713
11582,1793
11583,1782
11584,1706
11585,1697
11586,1772
11587,1775
11588,1703
11589,1691
11590,1771
11591,1797
11592,1727
11593,1685
11594,1755
11595,1791
11596,1732
11597,1681
11598,1729
11599,1779
11600,1739
11601,1673
11602,1714
11603,1787
11604,1753
11605,1680
11606,1712
11607,1792
11608,1781
11609,1701
11610,1699
11611,1771
11612,1778
11613,1712
11614,1687
11615,1759
11616,1786
11617,1725
11618,1687
11619,1756
11620,1792
11621,1730
11622,1676
11623,1734
11624,1801
11625,1757
11626,1685
11627,1725
11628,1790
11629,1767
11630,1702
11631,1718
11632,1798
11633,1792
11634,1723
11635,1728
11636,1802
11637,1798
11638,1727
11639,1707
11640,1786
11641,1809
11642,1741
11643,1703
11644,1776
11645,1812
11646,1757
11647,1712
11648,1769
11649,1821
11650,1771
11651,1709
11652,1751
11653,1819
11654,1791
11655,1725
11656,1747
11657,1821
11658,1799
11659,1724
11660,1730
11661,1817
11662,1827
11663,1756
11664,1741
11665,1814
11666,1835
11667,1776
11668,1755
11669,1842
11670,1899
11671,1866
11672,1840
11673,1897
11674,1939
11675,1890
11676,1827
11677,1878
11678,1967
11679,1951
11680,1862
11681,1853
11682,1875
11683,1824
11684,1745
11685,1772
11686,1850
11687,1830
11688,1744
11689,1729
11690,1806
11691,1812
11692,1735
11693,1701
11694,1770
11695,1799
11696,1733
11697,1691
11698,1753
11699,1807
11700,1767
11701,1713
11702,1751
11703,1800
11704,1735
11705,1633
11706,1687
11707,1895
11708,2112
11709,2336
11710,2621
11711,2863
11712,2837
11713,2594
11714,2423
11715,2293
11716,2034
11717,1728
11718,1584
11719,1651
11720,1754
11721,1773
11722,1776
11723,1862
11724,1913
11725,1845
11726,1770
11727,1806
11728,1869
11729,1838
11730,1773
11731,1806
11732,1875
11733,1852
11734,1783
11735,1793
11736,1872
11737,1867
11738,1789
11739,1775
11740,1855
11741,1887
11742,1837
11743,1801
11744,1872
11745,1917
11746,1872
11747,1838
11748,1899
11749,1952
11750,1899
11751,1833
11752,1888
11753,1964
11754,1936
11755,1866
11756,1899
11757,1971
11758,1962
11759,1898
11760,1925
11761,2018
11762,2015
11763,1943
11764,1936
11765,2026
11766,2058
11767,2000
11768,1975
11769,2059
11770,2098
11771,2045
11772,2011
11773,2083
11774,2143
11775,2102
11776,2035
11777,2093
11778,2146
11779,2081
11780,1977
11781,1983
11782,2037
11783,1994
11784,1888
11785,1869
11786,1906
11787,1862
11788,1762
11789,1733
11790,1799
11791,1807
11792,1717
11793,1679
11794,1739
11795,1757
11796,1683
11797,1647
11798,1712
11799,1751
11800,1695
11801,1633
11802,1685
11803,1745
11804,1711
11805,1641
11806,1664
11807,1741
11808,1723
11809,1650
11810,1672
11811,1759
11812,1761
11813,1691
11814,1687
11815,1767
11816,1779
11817,1699
11818,1671
11819,1745
11820,1783
11821,1733
11822,1696
11823,1763
11824,1812
11825,1759
11826,1709
11827,1764
11828,1824
11829,1776
11830,1710
11831,1744
11832,1815
11833,1797
11834,1719
11835,1734
11836,1815
11837,1808
11838,1730
11839,1729
11840,1805
11841,1808
11842,1728
11843,1699
11844,1773
11845,1798
11846,1737
11847,1695
11848,1762
11849,1811
11850,1749
11851,1699
11852,1753
11853,1808
11854,1762
11855,1695
11856,1728
11857,1807
11858,1782
11859,1713
11860,1734
11861,1808
11862,1802
11863,1725
11864,1712
11865,1791
11866,1807
11867,1733
11868,1712
11869,1785
11870,1809
11871,1744
11872,1701
11873,1775
11874,1821
11875,1762
11876,1712
11877,1761
11878,1822
11879,1786
11880,1728
11881,1765
11882,1827
11883,1792
11884,1718
11885,1744
11886,1827
11887,1815
11888,1744
11889,1753
11890,1827
11891,1827
11892,1758
11893,1735
11894,1813
11895,1840
11896,1776
11897,1741
11898,1798
11899,1839
11900,1778
11901,1741
11902,1793
11903,1854
11904,1814
11905,1753
11906,1787
11907,1855
11908,1828
11909,1755
11910,1777
11911,1849
11912,1840
11913,1762
11914,1771
11915,1854
11916,1856
11917,1795
11918,1806
11919,1916
11920,1968
