Sample_Index,ADC_Value
0,1808
1,1810
2,1678
3,1671
4,1824
5,1854
6,1683
7,1631
8,1769
9,1836
10,1685
11,1653
12,1764
13,1847
14,1745
15,1665
16,1763
17,1859
18,1782
19,1649
20,1731
21,1872
22,1821
23,1654
24,1680
25,1830
26,1840
27,1683
28,1697
29,1829
30,1840
31,1683
32,1666
33,1834
34,1877
35,1716
36,1631
37,1763
38,1852
39,1757
40,1661
41,1776
42,1919
43,1873
44,1776
45,1851
46,1958
47,1908
48,1781
49,1842
50,2000
51,2001
52,1825
53,1786
54,1903
55,1909
56,1744
57,1744
58,1889
59,1919
60,1744
61,1639
62,1778
63,1867
64,1755
65,1653
66,1751
67,1846
68,1744
69,1607
70,1682
71,1814
72,1776
73,1643
74,1690
75,1840
76,1791
77,1585
78,1641
79,1942
80,2211
81,2346
82,2559
83,2807
84,2766
85,2451
86,2286
87,2241
88,2092
89,1749
90,1535
91,1653
92,1806
93,1781
94,1694
95,1795
96,1935
97,1886
98,1728
99,1765
100,1891
101,1863
102,1711
103,1697
104,1856
105,1871
106,1719
107,1709
108,1853
109,1895
110,1744
111,1671
112,1823
113,1935
114,1847
115,1744
116,1846
117,1937
118,1860
119,1771
120,1862
121,1973
122,1904
123,1760
124,1835
125,1982
126,1963
127,1813
128,1827
129,1964
130,1991
131,1850
132,1818
133,1968
134,2032
135,1917
136,1889
137,2032
138,2105
139,1975
140,1898
141,2032
142,2160
143,2087
144,1957
145,2028
146,2150
147,2094
148,1961
149,2022
150,2157
151,2130
152,1966
153,1952
154,2065
155,2047
156,1889
157,1852
158,1939
159,1946
160,1787
161,1697
162,1793
163,1837
164,1713
165,1626
166,1737
167,1824
168,1732
169,1623
170,1712
171,1803
172,1722
173,1570
174,1632
175,1771
176,1727
177,1584
178,1641
179,1795
180,1781
181,1648
182,1663
183,1802
184,1827
185,1701
186,1650
187,1769
188,1823
189,1689
190,1616
191,1742
192,1835
193,1753
194,1649
195,1752
196,1867
197,1797
198,1651
199,1721
200,1854
201,1831
202,1678
203,1691
204,1834
205,1825
206,1671
207,1659
208,1815
209,1856
210,1712
211,1683
212,1818
213,1873
214,1726
215,1633
216,1753
217,1847
218,1744
219,1645
220,1753
221,1861
222,1795
223,1654
224,1715
225,1835
226,1793
227,1638
228,1679
229,1823
230,1823
231,1671
232,1655
233,1769
234,1853
235,1702
236,1645
237,1787
238,1862
239,1747
240,1663
241,1776
242,1847
243,1765
244,1667
245,1777
246,1875
247,1803
248,1693
249,1761
250,1881
251,1845
252,1697
253,1731
254,1872
255,1813
256,1675
257,1648
258,1809
259,1842
260,1706
261,1690
262,1835
263,1870
264,1727
265,1665
266,1793
267,1879
268,1776
269,1654
270,1757
271,1879
272,1819
273,1702
274,1767
275,1867
276,1821
277,1685
278,1745
279,1891
280,1857
281,1714
282,1733
283,1876
284,1888
285,1731
286,1710
287,1885
288,1956
289,1837
290,1789
291,1927
292,1998
293,1890
294,1781
295,1902
296,2033
297,1952
298,1770
299,1794
300,1891
301,1810
302,1725
303,1766
304,1887
305,1857
306,1690
307,1691
308,1839
309,1846
310,1687
311,1686
312,1835
313,1894
314,1751
315,1668
316,1823
317,1903
318,1788
319,1667
320,1771
321,1867
322,1754
323,1661
324,1862
325,2219
326,2462
327,2603
328,2819
329,2908
330,2702
331,2423
332,2302
333,2161
334,1887
335,1593
336,1554
337,1766
338,1869
339,1766
340,1729
341,1904
342,1968
343,1847
344,1744
345,1841
346,1919
347,1853
348,1754
349,1840
350,1965
351,1903
352,1771
353,1830
354,1953
355,1946
356,1813
357,1822
358,1959
359,1948
360,1789
361,1773
362,1935
363,1967
364,1820
365,1769
366,1926
367,2000
368,1863
369,1785
370,1916
371,2029
372,1954
373,1841
374,1921
375,2032
376,1981
377,1867
378,1918
379,2061
380,2046
381,1916
382,1922
383,2089
384,2115
385,1963
386,1915
387,2095
388,2177
389,2058
390,1999
391,2142
392,2206
393,2103
394,2029
395,2113
396,2166
397,2074
398,1951
399,2018
400,2102
401,1999
402,1827
403,1856
404,1947
405,1879
406,1703
407,1698
408,1845
409,1851
410,1699
411,1663
412,1808
413,1843
414,1701
415,1650
416,1755
417,1780
418,1651
419,1581
420,1724
421,1820
422,1712
423,1611
424,1713
425,1833
426,1738
427,1614
428,1681
429,1825
430,1783
431,1645
432,1667
433,1829
434,1840
435,1697
436,1680
437,1827
438,1867
439,1728
440,1678
441,1801
442,1861
443,1749
444,1675
445,1802
446,1881
447,1771
448,1680
449,1776
450,1877
451,1793
452,1650
453,1727
454,1865
455,1827
456,1683
457,1719
458,1858
459,1850
460,1731
461,1697
462,1855
463,1874
464,1694
465,1648
466,1808
467,1865
468,1725
469,1639
470,1770
471,1866
472,1776
473,1657
474,1744
475,1851
476,1775
477,1748
478,1712
479,1846
480,1803
481,1650
482,1682
483,1844
484,1841
485,1677
486,1667
487,1817
488,1853
489,1718
490,1691
491,1831
492,1885
493,1754
494,1681
495,1810
496,1898
497,1781
498,1680
499,1791
500,1879
501,1783
502,1648
503,1727
504,1859
505,1828
506,1695
507,1729
508,1870
509,1854
510,1712
511,1712
512,1856
513,1871
514,1733
515,1681
516,1854
517,1911
518,1770
519,1680
520,1815
521,1901
522,1803
523,1722
524,1809
525,1904
526,1815
527,1696
528,1765
529,1904
530,1873
531,1761
532,1834
533,2000
534,1994
535,1826
536,1815
537,1968
538,1985
539,1857
540,1857
541,1984
542,1979
543,1797
544,1715
545,1836
546,1920
547,1808
548,1719
549,1831
550,1919
551,1830
552,1676
553,1743
554,1868
555,1789
556,1646
557,1695
558,1853
559,1846
560,1691
561,1698
562,1835
563,1845
564,1682
565,1639
566,1787
567,1923
568,1981
569,2183
570,2599
571,2863
572,2753
573,2559
574,2505
575,2450
576,2165
577,1851
578,1739
579,1762
580,1714
581,1638
582,1744
583,1919
584,1905
585,1760
586,1775
587,1923
588,1934
589,1777
590,1747
591,1870
592,1909
593,1776
594,1728
595,1858
596,1936
597,1822
598,1729
599,1846
600,1952
601,1856
602,1745
603,1839
604,1962
605,1894
606,1663
607,1813
608,1965
609,1943
610,1789
611,1814
612,1989
613,2002
614,1855
615,1856
616,2007
617,2042
618,1891
619,1834
620,1972
621,2061
622,1964
623,1874
624,2006
625,2118
626,2025
627,1904
628,2000
629,2147
630,2115
631,1981
632,2014
633,2160
634,2153
635,2007
636,2027
637,2185
638,2179
639,2029
640,2002
641,2144
642,2159
643,1984
644,1939
645,2033
646,2040
647,1860
648,1761
649,1856
650,1929
651,1809
652,1684
653,1776
654,1872
655,1799
656,1638
657,1663
658,1798
659,1776
660,1607
661,1617
662,1766
663,1776
664,1635
665,1614
666,1777
667,1831
668,1682
669,1654
670,1789
671,1840
672,1706
673,1616
674,1749
675,1854
676,1766
677,1648
678,1741
679,1869
680,1803
681,1670
682,1735
683,1877
684,1849
685,1699
686,1717
687,1871
688,1858
689,1698
690,1701
691,1858
692,1879
693,1733
694,1704
695,1858
696,1899
697,1763
698,1648
699,1776
700,1872
701,1773
702,1665
703,1746
704,1875
705,1793
706,1651
707,1735
708,1891
709,1851
710,1663
711,1679
712,1827
713,1806
714,1654
715,1663
716,1818
717,1855
718,1707
719,1623
720,1769
721,1838
722,1721
723,1630
724,1752
725,1857
726,1761
727,1637
728,1733
729,1842
730,1757
731,1642
732,1719
733,1862
734,1840
735,1673
736,1704
737,1843
738,1846
739,1693
740,1669
741,1808
742,1849
743,1707
744,1655
745,1799
746,1856
747,1749
748,1695
749,1808
750,1882
751,1781
752,1669
753,1769
754,1855
755,1763
756,1648
757,1757
758,1895
759,1847
760,1698
761,1714
762,1840
763,1830
764,1692
765,1696
766,1850
767,1885
768,1728
769,1693
770,1826
771,1886
772,1767
773,1725
774,1840
775,1901
776,1778
777,1682
778,1803
779,1919
780,1859
781,1759
782,1847
783,1999
784,1947
785,1805
786,1828
787,1974
788,1970
789,1830
790,1834
791,1980
792,1941
793,1747
794,1683
795,1836
796,1909
797,1773
798,1666
799,1793
800,1877
801,1773
802,1654
803,1774
804,1877
805,1797
806,1665
807,1741
808,1872
809,1849
810,1685
811,1712
812,1847
813,1833
814,1675
815,1649
816,1791
817,1893
818,1927
819,2176
820,2630
821,2909
822,2774
823,2544
824,2495
825,2442
826,2112
827,1744
828,1727
829,1695
830,1653
831,1611
832,1757
833,1936
834,1907
835,1765
836,1791
837,1919
838,1891
839,1730
840,1730
841,1891
842,1913
843,1757
844,1725
845,1876
846,1936
847,1806
848,1715
849,1862
850,1938
851,1846
852,1772
853,1872
854,1961
855,1877
856,1776
857,1861
858,1987
859,1936
860,1792
861,1841
862,2018
863,2013
864,1841
865,1830
866,2000
867,2037
868,1891
869,1872
870,2031
871,2089
872,1943
873,1878
874,2026
875,2130
876,2009
877,1926
878,2057
879,2169
880,2110
881,1995
882,2084
883,2207
884,2144
885,1990
886,2028
887,2221
888,2167
889,2000
890,1981
891,2129
892,2137
893,1961
894,1902
895,2031
896,2041
897,1852
898,1733
899,1839
900,1905
901,1770
902,1651
903,1744
904,1826
905,1727
906,1598
907,1673
908,1801
909,1759
910,1610
911,1646
912,1760
913,1733
914,1613
915,1633
916,1758
917,1774
918,1637
919,1639
920,1775
921,1805
922,1668
923,1643
924,1769
925,1831
926,1712
927,1606
928,1727
929,1840
930,1750
931,1634
932,1731
933,1861
934,1809
935,1680
936,1729
937,1847
938,1810
939,1675
940,1682
941,1824
942,1840
943,1703
944,1700
945,1829
946,1853
947,1712
948,1649
949,1792
950,1858
951,1725
952,1646
953,1780
954,1861
955,1757
956,1631
957,1724
958,1851
959,1795
960,1664
961,1733
962,1869
963,1839
964,1697
965,1713
966,1846
967,1828
968,1680
969,1679
970,1808
971,1843
972,1687
973,1649
974,1787
975,1856
976,1733
977,1642
978,1761
979,1863
980,1759
981,1641
982,1729
983,1854
984,1796
985,1626
986,1689
987,1855
988,1840
989,1697
990,1712
991,1854
992,1857
993,1732
994,1739
995,1849
996,1855
997,1698
998,1643
999,1799
1000,1879
1001,1755
1002,1671
1003,1794
1004,1895
1005,1797
1006,1661
1007,1757
1008,1875
1009,1821
1010,1723
1011,1799
1012,1929
1013,1870
1014,1707
1015,1742
1016,1893
1017,1895
1018,1744
1019,1725
1020,1868
1021,1915
1022,1775
1023,1746
1024,1870
1025,1913
1026,1799
1027,1711
1028,1825
1029,1910
1030,1803
1031,1707
1032,1799
1033,1902
1034,1829
1035,1697
1036,1779
1037,1936
1038,1894
1039,1740
1040,1776
1041,1941
1042,1957
1043,1825
1044,1838
1045,1974
1046,1997
1047,1853
1048,1805
1049,1970
1050,2055
1051,1915
1052,1806
1053,1890
1054,1947
1055,1826
1056,1731
1057,1840
1058,1939
1059,1846
1060,1719
1061,1809
1062,1942
1063,1869
1064,1706
1065,1735
1066,1889
1067,1872
1068,1722
1069,1702
1070,1854
1071,1883
1072,1733
1073,1652
1074,1711
1075,1838
1076,1708
1077,1638
1078,1867
1079,2165
1080,2353
1081,2522
1082,2798
1083,2919
1084,2669
1085,2372
1086,2313
1087,2221
1088,1905
1089,1584
1090,1566
1091,1760
1092,1841
1093,1769
1094,1779
1095,1946
1096,1958
1097,1787
1098,1738
1099,1893
1100,1953
1101,1813
1102,1729
1103,1850
1104,1933
1105,1834
1106,1769
1107,1875
1108,1953
1109,1889
1110,1763
1111,1835
1112,1972
1113,1939
1114,1781
1115,1811
1116,1968
1117,1968
1118,1849
1119,1847
1120,1994
1121,2007
1122,1859
1123,1861
1124,2000
1125,2064
1126,1918
1127,1866
1128,2029
1129,2126
1130,2000
1131,1885
1132,1993
1133,2102
1134,2012
1135,1887
1136,1975
1137,2151
1138,2117
1139,1979
1140,2031
1141,2175
1142,2176
1143,2031
1144,2032
1145,2191
1146,2210
1147,2058
1148,2007
1149,2167
1150,2255
1151,2117
1152,2015
1153,2103
1154,2159
1155,2009
1156,1883
1157,1956
1158,2026
1159,1919
1160,1758
1161,1820
1162,1907
1163,1821
1164,1638
1165,1654
1166,1805
1167,1808
1168,1654
1169,1667
1170,1808
1171,1795
1172,1635
1173,1600
1174,1770
1175,1822
1176,1653
1177,1583
1178,1726
1179,1822
1180,1730
1181,1660
1182,1759
1183,1847
1184,1761
1185,1611
1186,1683
1187,1846
1188,1821
1189,1687
1190,1719
1191,1831
1192,1786
1193,1637
1194,1664
1195,1846
1196,1889
1197,1731
1198,1687
1199,1822
1200,1894
1201,1767
1202,1709
1203,1828
1204,1877
1205,1764
1206,1659
1207,1766
1208,1874
1209,1792
1210,1684
1211,1776
1212,1895
1213,1827
1214,1673
1215,1712
1216,1851
1217,1828
1218,1681
1219,1683
1220,1837
1221,1858
1222,1684
1223,1659
1224,1802
1225,1851
1226,1727
1227,1713
1228,1850
1229,1907
1230,1760
1231,1680
1232,1778
1233,1865
1234,1776
1235,1645
1236,1744
1237,1885
1238,1813
1239,1691
1240,1753
1241,1866
1242,1808
1243,1648
1244,1675
1245,1843
1246,1875
1247,1730
1248,1674
1249,1814
1250,1862
1251,1717
1252,1680
1253,1814
1254,1870
1255,1733
1256,1648
1257,1806
1258,1921
1259,1824
1260,1679
1261,1744
1262,1856
1263,1809
1264,1645
1265,1726
1266,1866
1267,1846
1268,1708
1269,1719
1270,1871
1271,1877
1272,1722
1273,1718
1274,1872
1275,1909
1276,1770
1277,1702
1278,1855
1279,1926
1280,1797
1281,1719
1282,1828
1283,1911
1284,1830
1285,1684
1286,1775
1287,1885
1288,1808
1289,1663
1290,1744
1291,1920
1292,1887
1293,1740
1294,1767
1295,1953
1296,1995
1297,1859
1298,1793
1299,2000
1300,2031
1301,1873
1302,1821
1303,1983
1304,2069
1305,1945
1306,1845
1307,1924
1308,1967
1309,1827
1310,1711
1311,1827
1312,1974
1313,1883
1314,1717
1315,1767
1316,1900
1317,1869
1318,1703
1319,1739
1320,1904
1321,1893
1322,1724
1323,1693
1324,1839
1325,1890
1326,1750
1327,1681
1328,1812
1329,1872
1330,1730
1331,1650
1332,1823
1333,2042
1334,2192
1335,2384
1336,2715
1337,2937
1338,2770
1339,2449
1340,2417
1341,2398
1342,2124
1343,1726
1344,1613
1345,1745
1346,1827
1347,1722
1348,1742
1349,1927
1350,1978
1351,1824
1352,1792
1353,1925
1354,1981
1355,1836
1356,1744
1357,1873
1358,1968
1359,1867
1360,1761
1361,1875
1362,1996
1363,1910
1364,1782
1365,1867
1366,1984
1367,1916
1368,1767
1369,1802
1370,1973
1371,1987
1372,1827
1373,1820
1374,1963
1375,1987
1376,1847
1377,1794
1378,1936
1379,2015
1380,1901
1381,1822
1382,1973
1383,2085
1384,1981
1385,1883
1386,1975
1387,2077
1388,2001
1389,1902
1390,1989
1391,2147
1392,2133
1393,1994
1394,2001
1395,2133
1396,2147
1397,2019
1398,2010
1399,2175
1400,2209
1401,2065
1402,2018
1403,2173
1404,2254
1405,2098
1406,2000
1407,2109
1408,2164
1409,2032
1410,1872
1411,1927
1412,2028
1413,1943
1414,1786
1415,1827
1416,1926
1417,1857
1418,1680
1419,1695
1420,1833
1421,1806
1422,1654
1423,1666
1424,1805
1425,1810
1426,1646
1427,1613
1428,1744
1429,1815
1430,1698
1431,1605
1432,1738
1433,1836
1434,1747
1435,1625
1436,1719
1437,1842
1438,1766
1439,1631
1440,1703
1441,1837
1442,1792
1443,1647
1444,1695
1445,1867
1446,1861
1447,1712
1448,1707
1449,1838
1450,1841
1451,1680
1452,1667
1453,1830
1454,1886
1455,1748
1456,1686
1457,1831
1458,1920
1459,1805
1460,1699
1461,1793
1462,1897
1463,1808
1464,1685
1465,1772
1466,1883
1467,1833
1468,1573
1469,1685
1470,1855
1471,1842
1472,1706
1473,1711
1474,1846
1475,1863
1476,1723
1477,1663
1478,1815
1479,1867
1480,1728
1481,1651
1482,1767
1483,1849
1484,1743
1485,1648
1486,1777
1487,1909
1488,1845
1489,1683
1490,1757
1491,1884
1492,1833
1493,1685
1494,1713
1495,1867
1496,1869
1497,1717
1498,1695
1499,1821
1500,1858
1501,1723
1502,1687
1503,1840
1504,1898
1505,1759
1506,1691
1507,1829
1508,1915
1509,1805
1510,1712
1511,1809
1512,1911
1513,1823
1514,1677
1515,1758
1516,1906
1517,1883
1518,1743
1519,1774
1520,1920
1521,1904
1522,1735
1523,1744
1524,1899
1525,1920
1526,1850
1527,1744
1528,1885
1529,1919
1530,1769
1531,1716
1532,1874
1533,1965
1534,1845
1535,1737
1536,1837
1537,1939
1538,1869
1539,1744
1540,1813
1541,1931
1542,1862
1543,1712
1544,1776
1545,1947
1546,1938
1547,1797
1548,1807
1549,1961
1550,1991
1551,1861
1552,1851
1553,2011
1554,2045
1555,1884
1556,1821
1557,1984
1558,2075
1559,1962
1560,1840
1561,1922
1562,1984
1563,1886
1564,1750
1565,1828
1566,1948
1567,1897
1568,1764
1569,1813
1570,1927
1571,1877
1572,1717
1573,1717
1574,1866
1575,1873
1576,1735
1577,1717
1578,1867
1579,1906
1580,1771
1581,1704
1582,1839
1583,1904
1584,1763
1585,1683
1586,1889
1587,2185
1588,2384
1589,2538
1590,2800
1591,2916
1592,2704
1593,2409
1594,2306
1595,2256
1596,2011
1597,1685
1598,1618
1599,1793
1600,1874
1601,1777
1602,1747
1603,1913
1604,1975
1605,1840
1606,1799
1607,1921
1608,1984
1609,1845
1610,1764
1611,1886
1612,1996
1613,1888
1614,1747
1615,1853
1616,1988
1617,1937
1618,1787
1619,1826
1620,1981
1621,1968
1622,1819
1623,1849
1624,1986
1625,1966
1626,1807
1627,1797
1628,1953
1629,2010
1630,1861
1631,1808
1632,1950
1633,2032
1634,1917
1635,1829
1636,1959
1637,2063
1638,1981
1639,1873
1640,1959
1641,2081
1642,2015
1643,1893
1644,1968
1645,2122
1646,2112
1647,1947
1648,1961
1649,2128
1650,2150
1651,2003
1652,1984
1653,2132
1654,2166
1655,2029
1656,2006
1657,2160
1658,2225
1659,2107
1660,1982
1661,2087
1662,2157
1663,2023
1664,1869
1665,1923
1666,2017
1667,1962
1668,1759
1669,1791
1670,1910
1671,1853
1672,1696
1673,1715
1674,1840
1675,1814
1676,1648
1677,1619
1678,1775
1679,1821
1680,1677
1681,1598
1682,1738
1683,1808
1684,1678
1685,1584
1686,1712
1687,1815
1688,1719
1689,1619
1690,1718
1691,1847
1692,1783
1693,1632
1694,1673
1695,1826
1696,1813
1697,1679
1698,1674
1699,1826
1700,1853
1701,1735
1702,1709
1703,1840
1704,1861
1705,1733
1706,1690
1707,1820
1708,1875
1709,1750
1710,1665
1711,1782
1712,1867
1713,1747
1714,1619
1715,1717
1716,1874
1717,1809
1718,1682
1719,1738
1720,1872
1721,1827
1722,1673
1723,1673
1724,1825
1725,1831
1726,1668
1727,1638
1728,1799
1729,1840
1730,1690
1731,1627
1732,1781
1733,1861
1734,1728
1735,1675
1736,1815
1737,1898
1738,1763
1739,1641
1740,1738
1741,1861
1742,1796
1743,1633
1744,1671
1745,1822
1746,1796
1747,1652
1748,1691
1749,1847
1750,1853
1751,1695
1752,1682
1753,1831
1754,1854
1755,1698
1756,1681
1757,1815
1758,1871
1759,1727
1760,1666
1761,1789
1762,1855
1763,1745
1764,1616
1765,1731
1766,1859
1767,1827
1768,1681
1769,1737
1770,1863
1771,1838
1772,1697
1773,1728
1774,1872
1775,1856
1776,1712
1777,1722
1778,1867
1779,1881
1780,1723
1781,1687
1782,1829
1783,1873
1784,1737
1785,1680
1786,1821
1787,1904
1788,1783
1789,1676
1790,1764
1791,1892
1792,1821
1793,1695
1794,1767
1795,1893
1796,1853
1797,1725
1798,1779
1799,1947
1800,1955
1801,1829
1802,1833
1803,1949
1804,1959
1805,1837
1806,1831
1807,2002
1808,2085
1809,1932
1810,1782
1811,1845
1812,1918
1813,1842
1814,1761
1815,1840
1816,1929
1817,1838
1818,1671
1819,1739
1820,1879
1821,1833
1822,1682
1823,1695
1824,1840
1825,1840
1826,1695
1827,1694
1828,1851
1829,1888
1830,1724
1831,1655
1832,1777
1833,1824
1834,1698
1835,1718
1836,2015
1837,2384
1838,2587
1839,2699
1840,2849
1841,2825
1842,2539
1843,2255
1844,2074
1845,1942
1846,1726
1847,1505
1848,1579
1849,1807
1850,1871
1851,1754
1852,1754
1853,1943
1854,1938
1855,1787
1856,1735
1857,1904
1858,1968
1859,1814
1860,1748
1861,1861
1862,1935
1863,1831
1864,1755
1865,1861
1866,1969
1867,1882
1868,1747
1869,1834
1870,1959
1871,1906
1872,1787
1873,1853
1874,1995
1875,1968
1876,1804
1877,1823
1878,1985
1879,2010
1880,1872
1881,1826
1882,1968
1883,2032
1884,1904
1885,1826
1886,1951
1887,2046
1888,1943
1889,1859
1890,1989
1891,2112
1892,2023
1893,1902
1894,1995
1895,2159
1896,2141
1897,1984
1898,2006
1899,2177
1900,2202
1901,2060
1902,2053
1903,2208
1904,2227
1905,2080
1906,2031
1907,2181
1908,2226
1909,2091
1910,2002
1911,2102
1912,2126
1913,1987
1914,1870
1915,1936
1916,1990
1917,1871
1918,1709
1919,1787
1920,1890
1921,1837
1922,1658
1923,1680
1924,1824
1925,1812
1926,1642
1927,1627
1928,1771
1929,1778
1930,1661
1931,1622
1932,1744
1933,1783
1934,1663
1935,1600
1936,1736
1937,1791
1938,1680
1939,1586
1940,1712
1941,1834
1942,1730
1943,1613
1944,1682
1945,1802
1946,1750
1947,1621
1948,1670
1949,1806
1950,1790
1951,1634
1952,1645
1953,1785
1954,1805
1955,1673
1956,1685
1957,1821
1958,1844
1959,1714
1960,1680
1961,1808
1962,1873
1963,1759
1964,1655
1965,1754
1966,1851
1967,1748
1968,1607
1969,1702
1970,1843
1971,1809
1972,1680
1973,1713
1974,1855
1975,1819
1976,1666
1977,1674
1978,1822
1979,1821
1980,1668
1981,1661
1982,1822
1983,1872
1984,1726
1985,1678
1986,1805
1987,1868
1988,1767
1989,1675
1990,1769
1991,1855
1992,1758
1993,1648
1994,1753
1995,1877
1996,1808
1997,1664
1998,1726
1999,1855
2000,1829
2001,1701
2002,1723
2003,1847
2004,1849
2005,1703
2006,1696
2007,1839
2008,1872
2009,1723
2010,1655
2011,1792
2012,1885
2013,1789
2014,1708
2015,1810
2016,1909
2017,1821
2018,1696
2019,1793
2020,1915
2021,1826
2022,1682
2023,1740
2024,1885
2025,1839
2026,1680
2027,1695
2028,1872
2029,1891
2030,1723
2031,1683
2032,1849
2033,1905
2034,1762
2035,1687
2036,1838
2037,1925
2038,1782
2039,1677
2040,1798
2041,1906
2042,1829
2043,1711
2044,1797
2045,1904
2046,1842
2047,1744
2048,1808
2049,1935
2050,1894
2051,1744
2052,1767
2053,1910
2054,1893
2055,1727
2056,1706
2057,1883
2058,1966
2059,1843
2060,1799
2061,1951
2062,2032
2063,1909
2064,1856
2065,1984
2066,2081
2067,1975
2068,1856
2069,1947
2070,2047
2071,1928
2072,1722
2073,1749
2074,1922
2075,1923
2076,1781
2077,1808
2078,1936
2079,1924
2080,1751
2081,1713
2082,1842
2083,1883
2084,1744
2085,1684
2086,1808
2087,1903
2088,1783
2089,1680
2090,1755
2091,1906
2092,1839
2093,1711
2094,1776
2095,1893
2096,1935
2097,2033
2098,2381
2099,2800
2100,2955
2101,2775
2102,2625
2103,2619
2104,2461
2105,2060
2106,1776
2107,1739
2108,1743
2109,1678
2110,1739
2111,1925
2112,1989
2113,1871
2114,1780
2115,1887
2116,1984
2117,1895
2118,1762
2119,1849
2120,1983
2121,1899
2122,1739
2123,1810
2124,1961
2125,1936
2126,1815
2127,1863
2128,1989
2129,1971
2130,1811
2131,1799
2132,1962
2133,2001
2134,1872
2135,1873
2136,2003
2137,2064
2138,1916
2139,1840
2140,1970
2141,2091
2142,1981
2143,1840
2144,1928
2145,2065
2146,2000
2147,1875
2148,1947
2149,2096
2150,2064
2151,1927
2152,1972
2153,2140
2154,2159
2155,1999
2156,1979
2157,2154
2158,2215
2159,2078
2160,2043
2161,2175
2162,2225
2163,2111
2164,2064
2165,2194
2166,2266
2167,2158
2168,2032
2169,2131
2170,2233
2171,2150
2172,1968
2173,1983
2174,2096
2175,2035
2176,1863
2177,1861
2178,1947
2179,1905
2180,1727
2181,1701
2182,1833
2183,1850
2184,1693
2185,1658
2186,1799
2187,1855
2188,1739
2189,1625
2190,1736
2191,1831
2192,1713
2193,1584
2194,1680
2195,1805
2196,1729
2197,1619
2198,1706
2199,1838
2200,1792
2201,1645
2202,1685
2203,1843
2204,1825
2205,1653
2206,1663
2207,1799
2208,1811
2209,1646
2210,1631
2211,1788
2212,1843
2213,1717
2214,1627
2215,1773
2216,1855
2217,1755
2218,1618
2219,1706
2220,1824
2221,1765
2222,1648
2223,1722
2224,1854
2225,1810
2226,1676
2227,1747
2228,1895
2229,1863
2230,1680
2231,1665
2232,1810
2233,1850
2234,1697
2235,1663
2236,1809
2237,1865
2238,1729
2239,1687
2240,1809
2241,1877
2242,1746
2243,1637
2244,1742
2245,1858
2246,1786
2247,1651
2248,1725
2249,1847
2250,1808
2251,1648
2252,1652
2253,1831
2254,1843
2255,1683
2256,1684
2257,1831
2258,1842
2259,1683
2260,1688
2261,1838
2262,1872
2263,1711
2264,1664
2265,1803
2266,1872
2267,1756
2268,1648
2269,1763
2270,1866
2271,1797
2272,1646
2273,1712
2274,1861
2275,1822
2276,1687
2277,1809
2278,1861
2279,1850
2280,1686
2281,1695
2282,1853
2283,1885
2284,1767
2285,1757
2286,1882
2287,1893
2288,1744
2289,1669
2290,1795
2291,1885
2292,1773
2293,1666
2294,1785
2295,1904
2296,1831
2297,1697
2298,1786
2299,1919
2300,1865
2301,1712
2302,1727
2303,1866
2304,1862
2305,1714
2306,1712
2307,1881
2308,1905
2309,1751
2310,1746
2311,1885
2312,1939
2313,1803
2314,1727
2315,1846
2316,1923
2317,1827
2318,1731
2319,1831
2320,1915
2321,1842
2322,1719
2323,1784
2324,1904
2325,1855
2326,1744
2327,1850
2328,2021
2329,2000
2330,1850
2331,1841
2332,1998
2333,2035
2334,1895
2335,1859
2336,2026
2337,2047
2338,1846
2339,1744
2340,1842
2341,1930
2342,1831
2343,1733
2344,1842
2345,1936
2346,1863
2347,1727
2348,1782
2349,1904
2350,1853
2351,1699
2352,1725
2353,1872
2354,1854
2355,1730
2356,1776
2357,1930
2358,1924
2359,1733
2360,1665
2361,1787
2362,1814
2363,1741
2364,1847
2365,2256
2366,2640
2367,2759
2368,2717
2369,2715
2370,2650
2371,2466
2372,2160
2373,1957
2374,1835
2375,1690
2376,1564
2377,1696
2378,1920
2379,1962
2380,1841
2381,1847
2382,1971
2383,1958
2384,1796
2385,1758
2386,1913
2387,1963
2388,1815
2389,1755
2390,1887
2391,1968
2392,1856
2393,1798
2394,1921
2395,1996
2396,1904
2397,1776
2398,1874
2399,2001
2400,1941
2401,1821
2402,1869
2403,1998
2404,1966
2405,1822
2406,1841
2407,1999
2408,2010
2409,1867
2410,1856
2411,2023
2412,2085
2413,1933
2414,1879
2415,1998
2416,2085
2417,1965
2418,1869
2419,2005
2420,2144
2421,2047
2422,1951
2423,2038
2424,2164
2425,2110
2426,1986
2427,2064
2428,2192
2429,2165
2430,2005
2431,2035
2432,2217
2433,2237
2434,2108
2435,2083
2436,2195
2437,2227
2438,2068
2439,1962
2440,2061
2441,2096
2442,1936
2443,1843
2444,1913
2445,1969
2446,1856
2447,1717
2448,1775
2449,1878
2450,1805
2451,1668
2452,1725
2453,1841
2454,1794
2455,1645
2456,1657
2457,1786
2458,1793
2459,1648
2460,1648
2461,1790
2462,1802
2463,1639
2464,1603
2465,1744
2466,1825
2467,1713
2468,1648
2469,1763
2470,1849
2471,1746
2472,1627
2473,1700
2474,1821
2475,1775
2476,1661
2477,1718
2478,1853
2479,1829
2480,1681
2481,1680
2482,1835
2483,1844
2484,1716
2485,1733
2486,1881
2487,1904
2488,1726
2489,1673
2490,1803
2491,1870
2492,1747
2493,1670
2494,1799
2495,1891
2496,1808
2497,1657
2498,1753
2499,1876
2500,1808
2501,1646
2502,1709
2503,1843
2504,1813
2505,1680
2506,1725
2507,1877
2508,1851
2509,1691
2510,1696
2511,1855
2512,1870
2513,1705
2514,1677
2515,1825
2516,1878
2517,1723
2518,1626
2519,1747
2520,1852
2521,1758
2522,1658
2523,1759
2524,1867
2525,1787
2526,1650
2527,1715
2528,1842
2529,1824
2530,1683
2531,1712
2532,1845
2533,1842
2534,1702
2535,1707
2536,1840
2537,1853
2538,1712
2539,1673
2540,1808
2541,1873
2542,1744
2543,1686
2544,1821
2545,1904
2546,1785
2547,1665
2548,1770
2549,1911
2550,1840
2551,1699
2552,1761
2553,1894
2554,1861
2555,1702
2556,1726
2557,1872
2558,1851
2559,1712
2560,1728
2561,1883
2562,1921
2563,1783
2564,1731
2565,1858
2566,1906
2567,1748
2568,1715
2569,1840
2570,1931
2571,1830
2572,1691
2573,1776
2574,1901
2575,1842
2576,1712
2577,1793
2578,1927
2579,1884
2580,1761
2581,1793
2582,1920
2583,1891
2584,1746
2585,1757
2586,1913
2587,1920
2588,1756
2589,1715
2590,1861
2591,1936
2592,1813
2593,1757
2594,1922
2595,2032
2596,1900
2597,1797
2598,1889
2599,2000
2600,1936
2601,1827
2602,1913
2603,2031
2604,1947
2605,1744
2606,1761
2607,1909
2608,1932
2609,1763
2610,1743
2611,1876
2612,1887
2613,1731
2614,1680
2615,1811
2616,1878
2617,1775
2618,1712
2619,1837
2620,1902
2621,1791
2622,1689
2623,1801
2624,1909
2625,1822
2626,1673
2627,1710
2628,1830
2629,1854
2630,1879
2631,2182
2632,2617
2633,2832
2634,2755
2635,2643
2636,2624
2637,2541
2638,2205
2639,1899
2640,1812
2641,1776
2642,1644
2643,1633
2644,1840
2645,1972
2646,1872
2647,1811
2648,1908
2649,1998
2650,1902
2651,1748
2652,1803
2653,1929
2654,1877
2655,1727
2656,1790
2657,1941
2658,1889
2659,1792
2660,1803
2661,1962
2662,1981
2663,1842
2664,1810
2665,1962
2666,2002
2667,1873
2668,1846
2669,1968
2670,2038
2671,1919
2672,1809
2673,1913
2674,2022
2675,1950
2676,1835
2677,1921
2678,2067
2679,2026
2680,1891
2681,1952
2682,2095
2683,2085
2684,1968
2685,1936
2686,2111
2687,2135
2688,1968
2689,1968
2690,2128
2691,2189
2692,2061
2693,1996
2694,2137
2695,2224
2696,2109
2697,2018
2698,2140
2699,2254
2700,2170
2701,2032
2702,2107
2703,2224
2704,2163
2705,1989
2706,1989
2707,2098
2708,2043
2709,1866
2710,1846
2711,1963
2712,1937
2713,1725
2714,1719
2715,1839
2716,1863
2717,1711
2718,1641
2719,1778
2720,1861
2721,1733
2722,1648
2723,1769
2724,1845
2725,1720
2726,1599
2727,1703
2728,1846
2729,1791
2730,1680
2731,1734
2732,1867
2733,1818
2734,1659
2735,1668
2736,1822
2737,1840
2738,1675
2739,1646
2740,1806
2741,1869
2742,1742
2743,1697
2744,1834
2745,1888
2746,1761
2747,1643
2748,1759
2749,1867
2750,1803
2751,1697
2752,1777
2753,1903
2754,1829
2755,1678
2756,1742
2757,1886
2758,1859
2759,1708
2760,1749
2761,1885
2762,1873
2763,1712
2764,1715
2765,1862
2766,1883
2767,1721
2768,1684
2769,1839
2770,1904
2771,1767
2772,1664
2773,1766
2774,1872
2775,1799
2776,1675
2777,1751
2778,1870
2779,1808
2780,1687
2781,1749
2782,1881
2783,1834
2784,1680
2785,1698
2786,1863
2787,1872
2788,1714
2789,1697
2790,1849
2791,1881
2792,1745
2793,1711
2794,1841
2795,1886
2796,1748
2797,1693
2798,1806
2799,1883
2800,1776
2801,1667
2802,1776
2803,1899
2804,1821
2805,1691
2806,1771
2807,1909
2808,1857
2809,1699
2810,1737
2811,1888
2812,1889
2813,1728
2814,1728
2815,1886
2816,1920
2817,1776
2818,1726
2819,1862
2820,1915
2821,1783
2822,1712
2823,1826
2824,1913
2825,1798
2826,1679
2827,1781
2828,1929
2829,1874
2830,1725
2831,1791
2832,1919
2833,1870
2834,1719
2835,1767
2836,1930
2837,1931
2838,1780
2839,1798
2840,1917
2841,1916
2842,1747
2843,1712
2844,1872
2845,1958
2846,1825
2847,1715
2848,1838
2849,1936
2850,1857
2851,1765
2852,1870
2853,1995
2854,1937
2855,1818
2856,1881
2857,2005
2858,1967
2859,1835
2860,1872
2861,2035
2862,2018
2863,1845
2864,1802
2865,1911
2866,1953
2867,1827
2868,1787
2869,1906
2870,1941
2871,1803
2872,1714
2873,1826
2874,1918
2875,1838
2876,1715
2877,1802
2878,1893
2879,1835
2880,1696
2881,1787
2882,1925
2883,1878
2884,1709
2885,1717
2886,1858
2887,1831
2888,1683
2889,1789
2890,2160
2891,2497
2892,2635
2893,2763
2894,2853
2895,2706
2896,2416
2897,2183
2898,2125
2899,2015
2900,1738
2901,1584
2902,1718
2903,1884
2904,1855
2905,1759
2906,1850
2907,1989
2908,1949
2909,1774
2910,1781
2911,1927
2912,1909
2913,1767
2914,1783
2915,1951
2916,1973
2917,1815
2918,1763
2919,1889
2920,1954
2921,1782
2922,1783
2923,1906
2924,1968
2925,1849
2926,1744
2927,1869
2928,1994
2929,1922
2930,1776
2931,1843
2932,1995
2933,1969
2934,1827
2935,1842
2936,1984
2937,2000
2938,1892
2939,1893
2940,2029
2941,2034
2942,1914
2943,1901
2944,2032
2945,2082
2946,2013
2947,1889
2948,2023
2949,2132
2950,2031
2951,1923
2952,2061
2953,2181
2954,2103
2955,1997
2956,2085
2957,2198
2958,2137
2959,2007
2960,2084
2961,2224
2962,2185
2963,2010
2964,2000
2965,2138
2966,2118
2967,1917
2968,1845
2969,1978
2970,2000
2971,1828
2972,1730
2973,1839
2974,1855
2975,1761
2976,1648
2977,1735
2978,1813
2979,1733
2980,1606
2981,1666
2982,1795
2983,1758
2984,1617
2985,1647
2986,1759
2987,1760
2988,1627
2989,1641
2990,1791
2991,1806
2992,1638
2993,1623
2994,1777
2995,1818
2996,1698
2997,1664
2998,1795
2999,1858
3000,1729
3001,1650
3002,1778
3003,1882
3004,1789
3005,1646
3006,1713
3007,1841
3008,1808
3009,1663
3010,1693
3011,1839
3012,1830
3013,1686
3014,1721
3015,1862
3016,1853
3017,1680
3018,1648
3019,1805
3020,1851
3021,1707
3022,1643
3023,1771
3024,1846
3025,1715
3026,1642
3027,1756
3028,1860
3029,1759
3030,1637
3031,1734
3032,1859
3033,1793
3034,1662
3035,1700
3036,1824
3037,1795
3038,1648
3039,1656
3040,1815
3041,1838
3042,1681
3043,1665
3044,1797
3045,1840
3046,1697
3047,1666
3048,1798
3049,1867
3050,1760
3051,1646
3052,1744
3053,1840
3054,1747
3055,1675
3056,1776
3057,1883
3058,1794
3059,1634
3060,1697
3061,1863
3062,1855
3063,1691
3064,1685
3065,1835
3066,1847
3067,1695
3068,1664
3069,1823
3070,1870
3071,1733
3072,1694
3073,1807
3074,1872
3075,1749
3076,1682
3077,1799
3078,1902
3079,1790
3080,1681
3081,1774
3082,1878
3083,1797
3084,1676
3085,1740
3086,1875
3087,1846
3088,1681
3089,1699
3090,1855
3091,1875
3092,1750
3093,1746
3094,1894
3095,1919
3096,1755
3097,1682
3098,1813
3099,1886
3100,1777
3101,1703
3102,1827
3103,1912
3104,1799
3105,1695
3106,1797
3107,1913
3108,1843
3109,1693
3110,1765
3111,1910
3112,1889
3113,1757
3114,1808
3115,1967
3116,1980
3117,1834
3118,1825
3119,1979
3120,2013
3121,1884
3122,1853
3123,2004
3124,2039
3125,1871
3126,1726
3127,1828
3128,1919
3129,1853
3130,1739
3131,1811
3132,1911
3133,1840
3134,1705
3135,1739
3136,1869
3137,1827
3138,1670
3139,1710
3140,1867
3141,1855
3142,1705
3143,1700
3144,1871
3145,1905
3146,1743
3147,1683
3148,1790
3149,1809
3150,1728
3151,1808
3152,2218
3153,2638
3154,2768
3155,2706
3156,2686
3157,2622
3158,2431
3159,2091
3160,1902
3161,1811
3162,1670
3163,1509
3164,1647
3165,1899
3166,1934
3167,1787
3168,1775
3169,1933
3170,1953
3171,1798
3172,1749
3173,1883
3174,1921
3175,1793
3176,1729
3177,1855
3178,1948
3179,1866
3180,1761
3181,1846
3182,1945
3183,1866
3184,1727
3185,1808
3186,1956
3187,1919
3188,1767
3189,1807
3190,1954
3191,1947
3192,1847
3193,1798
3194,1964
3195,1999
3196,1847
3197,1893
3198,1979
3199,2043
3200,1829
3201,1827
3202,1968
3203,2073
3204,1947
3205,1872
3206,1978
3207,2112
3208,2054
3209,1918
3210,1985
3211,2139
3212,2114
3213,1968
3214,1996
3215,2175
3216,2185
3217,2023
3218,2016
3219,2174
3220,2222
3221,2074
3222,2047
3223,2195
3224,2231
3225,2059
3226,1970
3227,2073
3228,2124
3229,1945
3230,1794
3231,1873
3232,1967
3233,1856
3234,1686
3235,1737
3236,1843
3237,1781
3238,1649
3239,1691
3240,1819
3241,1801
3242,1627
3243,1622
3244,1762
3245,1771
3246,1606
3247,1593
3248,1749
3249,1809
3250,1674
3251,1609
3252,1750
3253,1827
3254,1708
3255,1584
3256,1689
3257,1805
3258,1741
3259,1629
3260,1717
3261,1842
3262,1798
3263,1651
3264,1694
3265,1846
3266,1840
3267,1694
3268,1711
3269,1857
3270,1855
3271,1687
3272,1664
3273,1839
3274,1918
3275,1785
3276,1687
3277,1808
3278,1889
3279,1791
3280,1680
3281,1769
3282,1870
3283,1796
3284,1686
3285,1765
3286,1887
3287,1810
3288,1665
3289,1705
3290,1858
3291,1840
3292,1682
3293,1712
3294,1861
3295,1857
3296,1694
3297,1682
3298,1845
3299,1883
3300,1737
3301,1654
3302,1791
3303,1879
3304,1773
3305,1696
3306,1764
3307,1856
3308,1765
3309,1647
3310,1735
3311,1849
3312,1781
3313,1649
3314,1712
3315,1871
3316,1853
3317,1663
3318,1722
3319,1870
3320,1872
3321,1715
3322,1701
3323,1853
3324,1879
3325,1706
3326,1667
3327,1808
3328,1887
3329,1760
3330,1659
3331,1777
3332,1875
3333,1776
3334,1642
3335,1750
3336,1872
3337,1803
3338,1663
3339,1715
3340,1863
3341,1832
3342,1665
3343,1659
3344,1822
3345,1855
3346,1715
3347,1718
3348,1869
3349,1898
3350,1728
3351,1669
3352,1788
3353,1863
3354,1737
3355,1659
3356,1796
3357,1909
3358,1813
3359,1685
3360,1787
3361,1910
3362,1842
3363,1690
3364,1757
3365,1921
3366,1885
3367,1729
3368,1751
3369,1894
3370,1901
3371,1750
3372,1723
3373,1856
3374,1909
3375,1782
3376,1754
3377,1900
3378,1973
3379,1856
3380,1810
3381,1955
3382,2055
3383,1946
3384,1837
3385,1939
3386,2065
3387,2004
3388,1904
3389,1950
3390,2018
3391,1918
3392,1743
3393,1757
3394,1923
3395,1920
3396,1744
3397,1744
3398,1900
3399,1935
3400,1763
3401,1726
3402,1874
3403,1928
3404,1776
3405,1682
3406,1802
3407,1899
3408,1802
3409,1698
3410,1787
3411,1879
3412,1802
3413,1663
3414,1712
3415,1927
3416,2064
3417,2163
3418,2461
3419,2835
3420,2925
3421,2670
3422,2476
3423,2501
3424,2335
3425,1943
3426,1701
3427,1726
3428,1789
3429,1737
3430,1755
3431,1922
3432,1986
3433,1890
3434,1760
3435,1856
3436,1983
3437,1909
3438,1791
3439,1844
3440,1968
3441,1901
3442,1749
3443,1808
3444,1970
3445,1959
3446,1808
3447,1812
3448,1950
3449,1967
3450,1830
3451,1807
3452,1936
3453,1978
3454,1844
3455,1772
3456,1910
3457,2021
3458,1931
3459,1794
3460,1905
3461,2032
3462,1957
3463,1827
3464,1904
3465,2037
3466,2000
3467,1879
3468,1926
3469,2086
3470,2091
3471,1938
3472,1939
3473,2091
3474,2119
3475,1986
3476,1982
3477,2143
3478,2198
3479,2064
3480,1982
3481,2118
3482,2219
3483,2103
3484,1989
3485,2112
3486,2240
3487,2154
3488,1997
3489,2055
3490,2175
3491,2112
3492,1940
3493,1943
3494,2045
3495,1979
3496,1795
3497,1771
3498,1891
3499,1883
3500,1719
3501,1678
3502,1793
3503,1828
3504,1672
3505,1597
3506,1707
3507,1794
3508,1680
3509,1592
3510,1709
3511,1805
3512,1723
3513,1583
3514,1669
3515,1805
3516,1767
3517,1626
3518,1685
3519,1821
3520,1794
3521,1658
3522,1680
3523,1821
3524,1830
3525,1657
3526,1619
3527,1772
3528,1832
3529,1706
3530,1647
3531,1777
3532,1878
3533,1773
3534,1665
3535,1763
3536,1884
3537,1794
3538,1657
3539,1735
3540,1859
3541,1809
3542,1679
3543,1716
3544,1863
3545,1865
3546,1702
3547,1710
3548,1856
3549,1881
3550,1711
3551,1687
3552,1821
3553,1873
3554,1749
3555,1680
3556,1796
3557,1872
3558,1758
3559,1657
3560,1757
3561,1872
3562,1794
3563,1675
3564,1728
3565,1839
3566,1781
3567,1648
3568,1711
3569,1854
3570,1822
3571,1667
3572,1683
3573,1840
3574,1856
3575,1703
3576,1674
3577,1815
3578,1862
3579,1714
3580,1654
3581,1810
3582,1905
3583,1773
3584,1687
3585,1793
3586,1874
3587,1776
3588,1650
3589,1746
3590,1882
3591,1834
3592,1700
3593,1754
3594,1883
3595,1850
3596,1683
3597,1686
3598,1840
3599,1859
3600,1703
3601,1681
3602,1840
3603,1872
3604,1741
3605,1680
3606,1819
3607,1901
3608,1795
3609,1711
3610,1819
3611,1926
3612,1819
3613,1706
3614,1802
3615,1920
3616,1850
3617,1685
3618,1745
3619,1894
3620,1865
3621,1712
3622,1734
3623,1883
3624,1888
3625,1727
3626,1703
3627,1842
3628,1898
3629,1759
3630,1678
3631,1808
3632,1895
3633,1795
3634,1725
3635,1831
3636,1934
3637,1842
3638,1713
3639,1808
3640,1935
3641,1843
3642,1698
3643,1757
3644,1907
3645,1905
3646,1783
3647,1837
3648,2000
3649,1985
3650,1814
3651,1805
3652,1975
3653,2032
3654,1905
3655,1856
3656,1958
3657,1972
3658,1786
3659,1681
3660,1825
3661,1940
3662,1845
3663,1727
3664,1823
3665,1947
3666,1855
3667,1686
3668,1713
3669,1869
3670,1852
3671,1710
3672,1727
3673,1867
3674,1875
3675,1728
3676,1719
3677,1879
3678,1909
3679,1737
3680,1648
3681,1769
3682,1897
3683,1919
3684,2078
3685,2480
3686,2773
3687,2819
3688,2633
3689,2530
3690,2544
3691,2310
3692,1887
3693,1751
3694,1771
3695,1746
3696,1671
3697,1763
3698,1953
3699,1968
3700,1807
3701,1776
3702,1924
3703,1951
3704,1808
3705,1782
3706,1916
3707,1962
3708,1824
3709,1744
3710,1878
3711,1979
3712,1878
3713,1759
3714,1864
3715,1972
3716,1918
3717,1782
3718,1840
3719,1984
3720,1965
3721,1835
3722,1869
3723,1991
3724,2011
3725,1856
3726,1870
3727,2032
3728,2045
3729,1889
3730,1845
3731,1986
3732,2075
3733,1950
3734,1875
3735,2000
3736,2095
3737,2000
3738,1911
3739,2015
3740,2141
3741,2075
3742,1925
3743,1999
3744,2153
3745,2132
3746,2002
3747,2029
3748,2160
3749,2159
3750,2014
3751,2035
3752,2198
3753,2205
3754,2058
3755,2006
3756,2145
3757,2190
3758,2026
3759,1917
3760,2012
3761,2071
3762,1933
3763,1823
3764,1891
3765,1957
3766,1840
3767,1697
3768,1753
3769,1857
3770,1782
3771,1631
3772,1683
3773,1835
3774,1801
3775,1642
3776,1642
3777,1793
3778,1810
3779,1669
3780,1616
3781,1745
3782,1802
3783,1680
3784,1616
3785,1735
3786,1827
3787,1728
3788,1608
3789,1715
3790,1847
3791,1782
3792,1646
3793,1717
3794,1859
3795,1808
3796,1663
3797,1701
3798,1854
3799,1842
3800,1695
3801,1696
3802,1854
3803,1970
3804,1730
3805,1684
3806,1828
3807,1872
3808,1729
3809,1657
3810,1789
3811,1872
3812,1779
3813,1666
3814,1770
3815,1878
3816,1793
3817,1667
3818,1742
3819,1868
3820,1823
3821,1647
3822,1664
3823,1827
3824,1833
3825,1691
3826,1693
3827,1841
3828,1867
3829,1699
3830,1671
3831,1813
3832,1858
3833,1728
3834,1631
3835,1761
3836,1858
3837,1747
3838,1664
3839,1775
3840,1867
3841,1767
3842,1666
3843,1757
3844,1873
3845,1805
3846,1680
3847,1738
3848,1877
3849,1852
3850,1681
3851,1668
3852,1836
3853,1859
3854,1707
3855,1669
3856,1838
3857,1914
3858,1769
3859,1707
3860,1840
3861,1907
3862,1761
3863,1664
3864,1786
3865,1913
3866,1840
3867,1728
3868,1792
3869,1899
3870,1838
3871,1709
3872,1759
3873,1895
3874,1859
3875,1723
3876,1749
3877,1897
3878,1904
3879,1747
3880,1711
3881,1843
3882,1901
3883,1750
3884,1705
3885,1842
3886,1923
3887,1806
3888,1726
3889,1841
3890,1942
3891,1849
3892,1703
3893,1784
3894,1915
3895,1869
3896,1744
3897,1803
3898,1947
3899,1917
3900,1771
3901,1771
3902,1911
3903,1941
3904,1821
3905,1834
3906,2000
3907,2055
3908,1886
3909,1795
3910,1936
3911,2037
3912,1943
3913,1846
3914,1941
3915,2015
3916,1884
3917,1744
3918,1819
3919,1943
3920,1868
3921,1709
3922,1747
3923,1897
3924,1894
3925,1752
3926,1779
3927,1905
3928,1890
3929,1737
3930,1718
3931,1856
3932,1890
3933,1744
3934,1730
3935,1875
3936,1936
3937,1785
3938,1670
3939,1756
3940,1915
3941,1968
3942,2086
3943,2451
3944,2859
3945,2900
3946,2668
3947,2502
3948,2511
3949,2334
3950,1979
3951,1781
3952,1792
3953,1782
3954,1703
3955,1763
3956,1930
3957,1985
3958,1845
3959,1769
3960,1884
3961,1954
3962,1821
3963,1762
3964,1901
3965,2000
3966,1897
3967,1776
3968,1851
3969,1968
3970,1910
3971,1776
3972,1827
3973,1959
3974,1931
3975,1795
3976,1823
3977,1975
3978,1997
3979,1842
3980,1821
3981,1965
3982,2000
3983,1856
3984,1823
3985,1967
3986,2030
3987,1902
3988,1821
3989,1943
3990,2065
3991,1969
3992,1869
3993,1952
3994,2090
3995,2017
3996,1869
3997,1935
3998,2086
3999,2073
4000,1936
4001,1969
4002,2127
4003,2135
4004,2000
4005,1975
4006,2127
4007,2164
4008,2027
4009,1998
4010,2154
4011,2245
4012,2118
4013,2001
4014,2097
4015,2183
4016,2074
4017,1936
4018,1982
4019,2066
4020,1955
4021,1803
4022,1843
4023,1946
4024,1904
4025,1722
4026,1697
4027,1815
4028,1812
4029,1671
4030,1653
4031,1782
4032,1794
4033,1641
4034,1597
4035,1743
4036,1810
4037,1680
4038,1590
4039,1711
4040,1795
4041,1697
4042,1573
4043,1666
4044,1785
4045,1727
4046,1615
4047,1683
4048,1826
4049,1791
4050,1639
4051,1662
4052,1808
4053,1814
4054,1669
4055,1694
4056,1840
4057,1844
4058,1691
4059,1647
4060,1791
4061,1846
4062,1715
4063,1664
4064,1791
4065,1870
4066,1776
4067,1654
4068,1747
4069,1855
4070,1791
4071,1664
4072,1713
4073,1846
4074,1795
4075,1653
4076,1693
4077,1850
4078,1845
4079,1682
4080,1693
4081,1847
4082,1876
4083,1721
4084,1671
4085,1791
4086,1834
4087,1695
4088,1623
4089,1765
4090,1862
4091,1743
4092,1621
4093,1728
4094,1856
4095,1799
4096,1662
4097,1715
4098,1851
4099,1808
4100,1648
4101,1679
4102,1829
4103,1838
4104,1701
4105,1712
4106,1862
4107,1869
4108,1687
4109,1622
4110,1787
4111,1872
4112,1730
4113,1671
4114,1808
4115,1891
4116,1776
4117,1655
4118,1763
4119,1888
4120,1810
4121,1680
4122,1739
4123,1863
4124,1818
4125,1677
4126,1715
4127,1873
4128,1858
4129,1693
4130,1690
4131,1846
4132,1872
4133,1725
4134,1693
4135,1835
4136,1878
4137,1735
4138,1683
4139,1815
4140,1904
4141,1776
4142,1659
4143,1765
4144,1895
4145,1817
4146,1701
4147,1789
4148,1920
4149,1846
4150,1680
4151,1717
4152,1879
4153,1875
4154,1731
4155,1739
4156,1865
4157,1885
4158,1763
4159,1791
4160,1950
4161,1998
4162,1877
4163,1834
4164,1921
4165,1991
4166,1882
4167,1777
4168,1904
4169,2033
4170,1917
4171,1755
4172,1799
4173,1914
4174,1854
4175,1712
4176,1737
4177,1860
4178,1840
4179,1677
4180,1657
4181,1822
4182,1859
4183,1707
4184,1675
4185,1810
4186,1855
4187,1712
4188,1646
4189,1775
4190,1859
4191,1744
4192,1642
4193,1727
4194,1818
4195,1736
4196,1682
4197,1935
4198,2353
4199,2623
4200,2697
4201,2775
4202,2800
4203,2598
4204,2291
4205,2089
4206,1970
4207,1871
4208,1585
4209,1565
4210,1791
4211,1899
4212,1809
4213,1776
4214,1904
4215,1927
4216,1815
4217,1712
4218,1836
4219,1959
4220,1890
4221,1740
4222,1820
4223,1967
4224,1945
4225,1797
4226,1814
4227,1950
4228,1931
4229,1765
4230,1776
4231,1945
4232,1959
4233,1799
4234,1793
4235,1957
4236,2014
4237,1870
4238,1814
4239,1933
4240,1995
4241,1872
4242,1767
4243,1895
4244,2027
4245,1953
4246,1869
4247,1958
4248,2086
4249,2037
4250,1886
4251,1931
4252,2087
4253,2073
4254,1934
4255,1955
4256,2118
4257,2133
4258,1984
4259,1968
4260,2128
4261,2198
4262,2064
4263,2023
4264,2167
4265,2245
4266,2109
4267,2011
4268,2127
4269,2217
4270,2109
4271,1968
4272,2025
4273,2133
4274,2032
4275,1865
4276,1877
4277,1968
4278,1905
4279,1713
4280,1716
4281,1855
4282,1846
4283,1667
4284,1638
4285,1774
4286,1810
4287,1653
4288,1586
4289,1709
4290,1786
4291,1680
4292,1603
4293,1698
4294,1778
4295,1682
4296,1580
4297,1683
4298,1810
4299,1717
4300,1583
4301,1650
4302,1807
4303,1776
4304,1632
4305,1661
4306,1819
4307,1818
4308,1648
4309,1623
4310,1779
4311,1834
4312,1696
4313,1678
4314,1814
4315,1865
4316,1744
4317,1670
4318,1783
4319,1878
4320,1776
4321,1680
4322,1751
4323,1855
4324,1771
4325,1647
4326,1712
4327,1855
4328,1837
4329,1682
4330,1681
4331,1823
4332,1838
4333,1697
4334,1703
4335,1850
4336,1873
4337,1701
4338,1649
4339,1790
4340,1871
4341,1733
4342,1650
4343,1779
4344,1865
4345,1774
4346,1678
4347,1770
4348,1871
4349,1795
4350,1667
4351,1730
4352,1866
4353,1811
4354,1665
4355,1681
4356,1825
4357,1840
4358,1707
4359,1712
4360,1853
4361,1872
4362,1731
4363,1698
4364,1817
4365,1879
4366,1744
4367,1663
4368,1766
4369,1861
4370,1765
4371,1658
4372,1766
4373,1889
4374,1811
4375,1695
4376,1775
4377,1903
4378,1847
4379,1694
4380,1726
4381,1882
4382,1887
4383,1731
4384,1718
4385,1859
4386,1873
4387,1712
4388,1677
4389,1830
4390,1904
4391,1771
4392,1667
4393,1823
4394,1909
4395,1813
4396,1712
4397,1808
4398,1912
4399,1822
4400,1696
4401,1760
4402,1895
4403,1870
4404,1728
4405,1765
4406,1917
4407,1908
4408,1751
4409,1737
4410,1895
4411,1936
4412,1779
4413,1719
4414,1862
4415,1943
4416,1810
4417,1742
4418,1858
4419,1955
4420,1840
4421,1763
4422,1904
4423,2037
4424,1994
4425,1867
4426,1905
4427,2025
4428,1982
4429,1848
4430,1902
4431,2067
4432,2047
4433,1862
4434,1823
4435,1936
4436,1948
4437,1809
4438,1785
4439,1902
4440,1939
4441,1791
4442,1684
4443,1815
4444,1910
4445,1809
4446,1722
4447,1808
4448,1899
4449,1810
4450,1673
4451,1740
4452,1891
4453,1865
4454,1723
4455,1751
4456,1858
4457,1810
4458,1686
4459,1815
4460,2193
4461,2517
4462,2649
4463,2752
4464,2881
4465,2777
4466,2480
4467,2242
4468,2112
4469,1936
4470,1662
4471,1527
4472,1705
4473,1910
4474,1803
4475,1766
4476,1841
4477,1972
4478,1920
4479,1770
4480,1810
4481,1962
4482,1966
4483,1825
4484,1824
4485,1950
4486,1962
4487,1808
4488,1790
4489,1936
4490,1998
4491,1862
4492,1791
4493,1913
4494,2013
4495,1898
4496,1793
4497,1882
4498,2000
4499,2002
4500,1822
4501,1891
4502,2016
4503,1963
4504,1825
4505,1856
4506,2015
4507,2029
4508,1909
4509,1934
4510,2064
4511,2065
4512,1923
4513,1908
4514,2047
4515,2124
4516,1991
4517,1951
4518,2087
4519,2160
4520,2032
4521,1947
4522,2073
4523,2219
4524,2149
4525,2029
4526,2123
4527,2256
4528,2195
4529,2045
4530,2084
4531,2218
4532,2207
4533,2047
4534,2013
4535,2130
4536,2116
4537,1920
4538,1859
4539,1970
4540,1984
4541,1808
4542,1702
4543,1805
4544,1879
4545,1746
4546,1629
4547,1719
4548,1829
4549,1745
4550,1621
4551,1680
4552,1791
4553,1745
4554,1617
4555,1670
4556,1808
4557,1775
4558,1618
4559,1643
4560,1806
4561,1823
4562,1655
4563,1631
4564,1783
4565,1828
4566,1675
4567,1586
4568,1728
4569,1839
4570,1735
4571,1649
4572,1755
4573,1870
4574,1790
4575,1674
4576,1747
4577,1870
4578,1814
4579,1693
4580,1745
4581,1879
4582,1858
4583,1687
4584,1680
4585,1841
4586,1872
4587,1719
4588,1679
4589,1807
4590,1856
4591,1731
4592,1679
4593,1803
4594,1881
4595,1789
4596,1711
4597,1798
4598,1887
4599,1778
4600,1659
4601,1758
4602,1899
4603,1835
4604,1686
4605,1721
4606,1859
4607,1840
4608,1697
4609,1727
4610,1872
4611,1871
4612,1700
4613,1648
4614,1805
4615,1871
4616,1728
4617,1655
4618,1794
4619,1875
4620,1763
4621,1695
4622,1803
4623,1883
4624,1786
4625,1674
4626,1767
4627,1888
4628,1811
4629,1685
4630,1738
4631,1871
4632,1855
4633,1694
4634,1706
4635,1856
4636,1871
4637,1716
4638,1683
4639,1821
4640,1869
4641,1723
4642,1664
4643,1807
4644,1895
4645,1773
4646,1712
4647,1826
4648,1913
4649,1808
4650,1682
4651,1780
4652,1909
4653,1834
4654,1693
4655,1744
4656,1904
4657,1872
4658,1714
4659,1712
4660,1855
4661,1884
4662,1744
4663,1744
4664,1893
4665,1926
4666,1776
4667,1717
4668,1856
4669,1925
4670,1798
4671,1712
4672,1822
4673,1933
4674,1840
4675,1726
4676,1815
4677,1934
4678,1865
4679,1733
4680,1811
4681,1936
4682,1873
4683,1712
4684,1756
4685,1955
4686,2010
4687,1881
4688,1872
4689,2000
4690,2025
4691,1871
4692,1840
4693,1972
4694,2056
4695,1931
4696,1853
4697,1928
4698,1964
4699,1839
4700,1733
4701,1821
4702,1934
4703,1855
4704,1705
4705,1776
4706,1921
4707,1890
4708,1744
4709,1743
4710,1874
4711,1874
4712,1755
4713,1777
4714,1915
4715,1919
4716,1762
4717,1716
4718,1862
4719,1909
4720,1746
4721,1648
4722,1793
4723,1999
4724,2108
4725,2281
4726,2631
4727,2941
4728,2845
4729,2515
4730,2445
4731,2446
4732,2194
4733,1791
4734,1629
4735,1745
4736,1831
4737,1759
4738,1792
4739,1951
4740,2009
4741,1840
4742,1781
4743,1919
4744,1984
4745,1860
4746,1773
4747,1886
4748,1982
4749,1880
4750,1771
4751,1877
4752,1993
4753,1921
4754,1771
4755,1830
4756,1991
4757,1969
4758,1854
4759,1885
4760,2015
4761,1987
4762,1838
4763,1830
4764,1985
4765,2031
4766,1898
4767,1872
4768,2015
4769,2080
4770,1920
4771,1899
4772,1984
4773,2096
4774,2003
4775,1910
4776,1997
4777,2117
4778,2026
4779,1905
4780,2001
4781,2147
4782,2126
4783,1999
4784,2035
4785,2195
4786,2182
4787,2031
4788,2030
4789,2192
4790,2240
4791,2101
4792,2073
4793,2210
4794,2254
4795,2101
4796,2006
4797,2134
4798,2224
4799,2089
4800,1935
4801,2000
4802,2096
4803,1974
4804,1813
4805,1873
4806,1968
4807,1887
4808,1728
4809,1759
4810,1879
4811,1856
4812,1711
4813,1694
4814,1833
4815,1863
4816,1698
4817,1639
4818,1783
4819,1851
4820,1707
4821,1649
4822,1777
4823,1855
4824,1743
4825,1641
4826,1743
4827,1872
4828,1802
4829,1663
4830,1717
4831,1845
4832,1809
4833,1683
4834,1743
4835,1904
4836,1877
4837,1727
4838,1717
4839,1868
4840,1906
4841,1766
4842,1745
4843,1872
4844,1913
4845,1746
4846,1711
4847,1856
4848,1941
4849,1808
4850,1709
4851,1798
4852,1898
4853,1817
4854,1695
4855,1775
4856,1892
4857,1830
4858,1699
4859,1735
4860,1858
4861,1830
4862,1677
4863,1689
4864,1854
4865,1889
4866,1741
4867,1713
4868,1858
4869,1904
4870,1753
4871,1690
4872,1815
4873,1903
4874,1785
4875,1670
4876,1767
4877,1887
4878,1829
4879,1722
4880,1790
4881,1904
4882,1835
4883,1679
4884,1730
4885,1887
4886,1870
4887,1707
4888,1709
4889,1859
4890,1877
4891,1743
4892,1716
4893,1855
4894,1916
4895,1771
4896,1713
4897,1845
4898,1925
4899,1805
4900,1750
4901,1859
4902,1936
4903,1815
4904,1697
4905,1773
4906,1895
4907,1838
4908,1702
4909,1773
4910,1931
4911,1905
4912,1750
4913,1760
4914,1909
4915,1919
4916,1742
4917,1709
4918,1871
4919,1949
4920,1759
4921,1762
4922,1878
4923,1955
4924,1835
4925,1734
4926,1853
4927,1938
4928,1833
4929,1708
4930,1808
4931,1943
4932,1887
4933,1746
4934,1787
4935,1939
4936,1922
4937,1777
4938,1799
4939,1936
4940,1930
4941,1776
4942,1754
4943,1909
4944,1966
4945,1805
4946,1755
4947,1889
4948,1959
4949,1823
4950,1746
4951,1875
4952,1996
4953,1911
4954,1829
4955,1931
4956,2062
4957,1979
4958,1843
4959,1903
4960,2060
4961,2045
4962,1913
4963,1934
4964,2035
4965,2000
4966,1809
4967,1745
4968,1899
4969,1983
4970,1855
4971,1787
4972,1891
4973,1932
4974,1815
4975,1719
4976,1835
4977,1941
4978,1838
4979,1698
4980,1782
4981,1911
4982,1856
4983,1735
4984,1808
4985,1931
4986,1866
4987,1696
4988,1693
4989,1824
4990,1879
4991,1875
4992,2118
4993,2559
4994,2880
4995,2814
4996,2660
4997,2609
4998,2559
4999,2260
5000,1926
5001,1807
5002,1794
5003,1715
5004,1666
5005,1835
5006,1998
5007,1920
5008,1763
5009,1808
5010,1950
5011,1940
5012,1790
5013,1795
5014,1935
5015,1936
5016,1776
5017,1750
5018,1904
5019,1941
5020,1792
5021,1743
5022,1887
5023,1965
5024,1827
5025,1752
5026,1860
5027,1965
5028,1869
5029,1767
5030,1866
5031,2006
5032,1945
5033,1794
5034,1862
5035,2010
5036,1997
5037,1847
5038,1864
5039,2013
5040,2032
5041,1893
5042,1875
5043,2021
5044,2064
5045,1927
5046,1898
5047,2032
5048,2128
5049,2019
5050,1963
5051,2077
5052,2156
5053,2032
5054,1930
5055,2032
5056,2180
5057,2115
5058,2015
5059,2090
5060,2203
5061,2146
5062,1998
5063,2034
5064,2193
5065,2192
5066,2007
5067,1970
5068,2096
5069,2095
5070,1895
5071,1825
5072,1927
5073,1965
5074,1793
5075,1711
5076,1807
5077,1877
5078,1742
5079,1641
5080,1738
5081,1849
5082,1773
5083,1647
5084,1686
5085,1802
5086,1767
5087,1615
5088,1648
5089,1797
5090,1770
5091,1612
5092,1600
5093,1751
5094,1791
5095,1648
5096,1611
5097,1754
5098,1828
5099,1694
5100,1635
5101,1759
5102,1846
5103,1741
5104,1635
5105,1726
5106,1840
5107,1747
5108,1648
5109,1745
5110,1869
5111,1802
5112,1680
5113,1744
5114,1872
5115,1846
5116,1703
5117,1700
5118,1827
5119,1863
5120,1719
5121,1673
5122,1801
5123,1858
5124,1723
5125,1683
5126,1792
5127,1854
5128,1742
5129,1648
5130,1744
5131,1845
5132,1762
5133,1622
5134,1712
5135,1840
5136,1789
5137,1642
5138,1701
5139,1849
5140,1821
5141,1648
5142,1655
5143,1825
5144,1859
5145,1712
5146,1681
5147,1812
5148,1855
5149,1712
5150,1630
5151,1760
5152,1874
5153,1781
5154,1677
5155,1763
5156,1865
5157,1787
5158,1676
5159,1745
5160,1872
5161,1802
5162,1664
5163,1699
5164,1845
5165,1851
5166,1719
5167,1728
5168,1840
5169,1886
5170,1739
5171,1696
5172,1822
5173,1876
5174,1726
5175,1662
5176,1807
5177,1901
5178,1785
5179,1673
5180,1778
5181,1884
5182,1795
5183,1677
5184,1755
5185,1889
5186,1837
5187,1697
5188,1738
5189,1869
5190,1841
5191,1705
5192,1718
5193,1887
5194,1889
5195,1729
5196,1719
5197,1875
5198,1930
5199,1776
5200,1718
5201,1845
5202,1919
5203,1808
5204,1728
5205,1841
5206,1951
5207,1843
5208,1727
5209,1812
5210,1968
5211,1962
5212,1830
5213,1862
5214,2003
5215,1996
5216,1872
5217,1903
5218,2061
5219,2071
5220,1893
5221,1805
5222,1897
5223,1915
5224,1775
5225,1719
5226,1845
5227,1938
5228,1778
5229,1737
5230,1838
5231,1904
5232,1793
5233,1677
5234,1773
5235,1911
5236,1855
5237,1682
5238,1729
5239,1873
5240,1862
5241,1718
5242,1713
5243,1838
5244,1819
5245,1663
5246,1735
5247,2061
5248,2361
5249,2509
5250,2693
5251,2880
5252,2812
5253,2496
5254,2267
5255,2193
5256,2096
5257,1792
5258,1578
5259,1664
5260,1847
5261,1847
5262,1743
5263,1808
5264,1950
5265,1930
5266,1786
5267,1795
5268,1931
5269,1923
5270,1781
5271,1775
5272,1918
5273,1952
5274,1813
5275,1782
5276,1905
5277,1952
5278,1808
5279,1742
5280,1866
5281,1968
5282,1873
5283,1758
5284,1842
5285,1973
5286,1924
5287,1825
5288,1879
5289,2000
5290,1955
5291,1811
5292,1845
5293,2022
5294,2027
5295,1873
5296,1856
5297,2000
5298,2042
5299,1911
5300,1885
5301,2019
5302,2109
5303,1975
5304,1902
5305,2015
5306,2112
5307,2018
5308,1902
5309,2010
5310,2163
5311,2062
5312,1985
5313,2057
5314,2187
5315,2155
5316,2003
5317,2033
5318,2192
5319,2192
5320,2013
5321,1975
5322,2096
5323,2117
5324,1942
5325,1881
5326,1986
5327,2029
5328,1850
5329,1722
5330,1808
5331,1891
5332,1778
5333,1653
5334,1719
5335,1837
5336,1776
5337,1645
5338,1679
5339,1787
5340,1741
5341,1633
5342,1669
5343,1803
5344,1777
5345,1619
5346,1612
5347,1759
5348,1792
5349,1643
5350,1604
5351,1743
5352,1806
5353,1680
5354,1607
5355,1727
5356,1831
5357,1713
5358,1590
5359,1689
5360,1827
5361,1770
5362,1637
5363,1692
5364,1823
5365,1794
5366,1663
5367,1679
5368,1802
5369,1781
5370,1648
5371,1687
5372,1790
5373,1812
5374,1651
5375,1590
5376,1717
5377,1791
5378,1677
5379,1606
5380,1731
5381,1837
5382,1729
5383,1648
5384,1719
5385,1815
5386,1734
5387,1609
5388,1663
5389,1775
5390,1716
5391,1583
5392,1623
5393,1759
5394,1744
5395,1584
5396,1570
5397,1727
5398,1765
5399,1611
5400,1572
5401,1702
5402,1757
5403,1619
5404,1558
5405,1674
5406,1745
5407,1618
5408,1516
5409,1625
5410,1751
5411,1683
5412,1579
5413,1630
5414,1744
5415,1686
5416,1520
5417,1535
5418,1712
5419,1715
5420,1577
5421,1563
5422,1687
5423,1725
5424,1586
5425,1534
5426,1674
5427,1740
5428,1591
5429,1511
5430,1629
5431,1729
5432,1628
5433,1518
5434,1621
5435,1734
5436,1649
5437,1508
5438,1587
5439,1710
5440,1663
5441,1514
5442,1559
5443,1712
5444,1709
5445,1535
5446,1535
5447,1676
5448,1697
5449,1554
5450,1523
5451,1682
5452,1718
5453,1575
5454,1520
5455,1638
5456,1713
5457,1488
5458,1474
5459,1586
5460,1700
5461,1623
5462,1514
5463,1578
5464,1697
5465,1658
5466,1521
5467,1565
5468,1696
5469,1670
5470,1516
5471,1535
5472,1719
5473,1748
5474,1614
5475,1601
5476,1749
5477,1796
5478,1658
5479,1605
5480,1743
5481,1819
5482,1686
5483,1587
5484,1643
5485,1703
5486,1587
5487,1468
5488,1559
5489,1665
5490,1590
5491,1441
5492,1489
5493,1627
5494,1615
5495,1456
5496,1443
5497,1575
5498,1605
5499,1471
5500,1450
5501,1582
5502,1644
5503,1474
5504,1376
5505,1488
5506,1581
5507,1435
5508,1338
5509,1504
5510,1791
5511,1984
5512,2144
5513,2427
5514,2647
5515,2487
5516,2173
5517,2081
5518,2000
5519,1690
5520,1303
5521,1235
5522,1427
5523,1535
5524,1471
5525,1475
5526,1626
5527,1663
5528,1499
5529,1414
5530,1521
5531,1631
5532,1511
5533,1408
5534,1509
5535,1638
5536,1563
5537,1443
5538,1515
5539,1655
5540,1599
5541,1445
5542,1481
5543,1630
5544,1610
5545,1456
5546,1472
5547,1623
5548,1641
5549,1499
5550,1479
5551,1633
5552,1695
5553,1562
5554,1490
5555,1616
5556,1701
5557,1584
5558,1511
5559,1613
5560,1723
5561,1627
5562,1512
5563,1600
5564,1747
5565,1715
5566,1609
5567,1663
5568,1808
5569,1783
5570,1630
5571,1677
5572,1840
5573,1866
5574,1713
5575,1687
5576,1841
5577,1898
5578,1759
5579,1718
5580,1835
5581,1915
5582,1785
5583,1705
5584,1795
5585,1888
5586,1758
5587,1610
5588,1659
5589,1751
5590,1661
5591,1474
5592,1489
5593,1621
5594,1578
5595,1413
5596,1424
5597,1535
5598,1529
5599,1359
5600,1344
5601,1488
5602,1535
5603,1399
5604,1314
5605,1441
5606,1531
5607,1396
5608,1345
5609,1454
5610,1584
5611,1481
5612,1381
5613,1462
5614,1579
5615,1515
5616,1387
5617,1429
5618,1584
5619,1581
5620,1434
5621,1452
5622,1599
5623,1616
5624,1472
5625,1478
5626,1634
5627,1686
5628,1518
5629,1472
5630,1623
5631,1694
5632,1553
5633,1482
5634,1589
5635,1686
5636,1591
5637,1476
5638,1571
5639,1712
5640,1651
5641,1527
5642,1577
5643,1712
5644,1680
5645,1520
5646,1526
5647,1680
5648,1698
5649,1535
5650,1533
5651,1680
5652,1737
5653,1607
5654,1563
5655,1683
5656,1741
5657,1583
5658,1487
5659,1629
5660,1759
5661,1661
5662,1568
5663,1675
5664,1781
5665,1700
5666,1595
5667,1649
5668,1775
5669,1728
5670,1584
5671,1622
5672,1755
5673,1744
5674,1614
5675,1606
5676,1758
5677,1810
5678,1661
5679,1625
5680,1767
5681,1827
5682,1691
5683,1615
5684,1739
5685,1841
5686,1744
5687,1627
5688,1714
5689,1834
5690,1767
5691,1670
5692,1735
5693,1852
5694,1790
5695,1665
5696,1717
5697,1850
5698,1851
5699,1712
5700,1703
5701,1831
5702,1869
5703,1730
5704,1713
5705,1887
5706,1903
5707,1759
5708,1694
5709,1808
5710,1920
5711,1813
5712,1711
5713,1809
5714,1931
5715,1872
5716,1741
5717,1796
5718,1935
5719,1905
5720,1780
5721,1832
5722,1953
5723,1947
5724,1797
5725,1796
5726,1938
5727,1963
5728,1819
5729,1809
5730,1959
5731,2006
5732,1855
5733,1778
5734,1901
5735,1999
5736,1899
5737,1805
5738,1903
5739,2017
5740,1932
5741,1841
5742,1936
5743,2096
5744,2071
5745,1919
5746,1962
5747,2113
5748,2123
5749,1982
5750,1974
5751,2131
5752,2192
5753,2032
5754,1934
5755,1999
5756,2038
5757,1899
5758,1859
5759,2004
5760,2077
5761,1936
5762,1842
5763,1945
5764,2066
5765,1959
5766,1807
5767,1889
5768,2043
5769,2020
5770,1867
5771,1886
5772,2019
5773,2040
5774,1904
5775,1906
5776,2032
5777,2029
5778,1822
5779,1801
5780,2069
5781,2365
5782,2507
5783,2688
5784,3008
5785,3187
5786,2866
5787,2617
5788,2559
5789,2439
5790,2079
5791,1775
5792,1809
5793,2002
5794,2031
5795,1941
5796,2018
5797,2180
5798,2167
5799,1997
5800,1999
5801,2149
5802,2166
5803,2003
5804,1978
5805,2115
5806,2173
5807,2037
5808,1991
5809,2117
5810,2199
5811,2076
5812,1975
5813,2083
5814,2215
5815,2138
5816,2005
5817,2081
5818,2224
5819,2189
5820,2046
5821,2087
5822,2236
5823,2224
5824,2086
5825,2103
5826,2240
5827,2256
5828,2112
5829,2096
5830,2235
5831,2289
5832,2137
5833,2057
5834,2207
5835,2309
5836,2215
5837,2176
5838,2287
5839,2409
5840,2311
5841,2198
5842,2269
5843,2403
5844,2379
5845,2261
5846,2306
5847,2442
5848,2426
5849,2267
5850,2260
5851,2416
5852,2465
5853,2305
5854,2258
5855,2370
5856,2388
5857,2215
5858,2139
5859,2231
5860,2288
5861,2128
5862,1981
5863,2086
5864,2176
5865,2057
5866,1915
5867,1979
5868,2096
5869,2010
5870,1899
5871,1961
5872,2074
5873,2013
5874,1840
5875,1871
5876,2009
5877,2023
5878,1888
5879,1871
5880,1991
5881,2034
5882,1891
5883,1863
5884,1983
5885,2064
5886,1936
5887,1872
5888,1968
5889,2057
5890,1950
5891,1839
5892,1927
5893,2064
5894,1952
5895,1867
5896,1930
5897,2086
5898,2067
5899,1910
5900,1920
5901,2070
5902,2081
5903,1911
5904,1886
5905,2035
5906,2094
5907,1945
5908,1898
5909,2001
5910,2079
5911,1943
5912,1862
5913,1968
5914,2077
5915,1969
5916,1867
5917,1945
5918,2076
5919,1999
5920,1872
5921,1929
5922,2075
5923,2037
5924,1901
5925,1918
5926,2032
5927,2027
5928,1878
5929,1871
5930,2000
5931,2043
5932,1882
5933,1814
5934,1952
5935,2060
5936,1935
5937,1851
5938,1945
5939,2058
5940,1950
5941,1829
5942,1915
5943,2039
5944,1968
5945,1843
5946,1903
5947,2039
5948,2002
5949,1866
5950,1899
5951,2055
5952,2043
5953,1865
5954,1842
5955,2002
5956,2058
5957,1915
5958,1872
5959,1994
5960,2066
5961,1935
5962,1921
5963,1963
5964,2056
5965,1936
5966,1871
5967,1967
5968,2075
5969,1968
5970,1833
5971,1887
5972,2022
5973,1984
5974,1833
5975,1872
5976,2017
5977,2011
5978,1867
5979,1871
5980,2007
5981,2034
5982,1904
5983,1877
5984,2010
5985,2071
5986,1904
5987,1837
5988,1952
5989,2061
5990,1915
5991,1823
5992,1928
5993,2062
5994,1963
5995,1843
5996,1908
5997,2047
5998,1999
5999,1847
6000,1881
6001,2013
6002,2019
6003,1876
6004,1866
6005,2010
6006,2042
6007,1877
6008,1862
6009,2016
6010,2112
6011,1986
6012,1949
6013,2079
6014,2160
6015,2029
6016,1920
6017,2000
6018,2133
6019,2087
6020,1972
6021,2000
6022,2066
6023,1968
6024,1830
6025,1869
6026,2018
6027,1986
6028,1837
6029,1861
6030,1997
6031,1999
6032,1818
6033,1790
6034,1921
6035,1983
6036,1853
6037,1783
6038,1905
6039,2005
6040,1872
6041,1760
6042,1865
6043,1967
6044,1872
6045,1711
6046,1772
6047,1965
6048,2069
6049,2173
6050,2512
6051,2909
6052,3014
6053,2752
6054,2559
6055,2594
6056,2432
6057,2017
6058,1747
6059,1770
6060,1849
6061,1789
6062,1818
6063,1983
6064,2070
6065,1925
6066,1815
6067,1898
6068,2006
6069,1927
6070,1806
6071,1887
6072,2007
6073,1947
6074,1806
6075,1843
6076,1998
6077,2000
6078,1869
6079,1870
6080,1991
6081,2000
6082,1869
6083,1834
6084,1966
6085,2006
6086,1875
6087,1844
6088,1981
6089,2069
6090,1921
6091,1847
6092,1967
6093,2091
6094,1984
6095,1881
6096,1951
6097,2086
6098,2015
6099,1895
6100,1946
6101,2096
6102,2083
6103,1937
6104,1951
6105,2104
6106,2116
6107,2000
6108,2003
6109,2143
6110,2187
6111,2055
6112,1999
6113,2142
6114,2230
6115,2111
6116,2002
6117,2093
6118,2211
6119,2129
6120,2031
6121,2107
6122,2215
6123,2118
6124,1961
6125,1981
6126,2082
6127,2031
6128,1895
6129,1881
6130,1963
6131,1919
6132,1735
6133,1706
6134,1825
6135,1856
6136,1685
6137,1639
6138,1760
6139,1839
6140,1690
6141,1595
6142,1703
6143,1810
6144,1702
6145,1585
6146,1666
6147,1808
6148,1759
6149,1663
6150,1705
6151,1815
6152,1808
6153,1664
6154,1695
6155,1830
6156,1822
6157,1648
6158,1618
6159,1770
6160,1835
6161,1702
6162,1680
6163,1809
6164,1867
6165,1728
6166,1649
6167,1761
6168,1865
6169,1775
6170,1659
6171,1746
6172,1858
6173,1782
6174,1659
6175,1712
6176,1840
6177,1789
6178,1648
6179,1682
6180,1829
6181,1843
6182,1702
6183,1677
6184,1792
6185,1823
6186,1665
6187,1629
6188,1766
6189,1842
6190,1712
6191,1648
6192,1755
6193,1837
6194,1728
6195,1650
6196,1736
6197,1843
6198,1776
6199,1650
6200,1709
6201,1827
6202,1792
6203,1651
6204,1669
6205,1808
6206,1825
6207,1685
6208,1666
6209,1797
6210,1830
6211,1680
6212,1663
6213,1805
6214,1872
6215,1734
6216,1669
6217,1777
6218,1857
6219,1738
6220,1618
6221,1709
6222,1842
6223,1776
6224,1659
6225,1721
6226,1863
6227,1837
6228,1687
6229,1713
6230,1849
6231,1840
6232,1683
6233,1686
6234,1831
6235,1861
6236,1715
6237,1681
6238,1819
6239,1883
6240,1740
6241,1705
6242,1821
6243,1904
6244,1783
6245,1669
6246,1766
6247,1877
6248,1810
6249,1686
6250,1751
6251,1887
6252,1846
6253,1708
6254,1737
6255,1875
6256,1863
6257,1721
6258,1726
6259,1859
6260,1889
6261,1733
6262,1713
6263,1845
6264,1915
6265,1791
6266,1739
6267,1847
6268,1917
6269,1782
6270,1691
6271,1806
6272,1942
6273,1895
6274,1808
6275,1903
6276,2020
6277,1942
6278,1788
6279,1830
6280,1998
6281,2003
6282,1872
6283,1865
6284,1964
6285,1943
6286,1770
6287,1709
6288,1856
6289,1918
6290,1754
6291,1669
6292,1799
6293,1897
6294,1789
6295,1699
6296,1792
6297,1900
6298,1826
6299,1683
6300,1751
6301,1866
6302,1808
6303,1677
6304,1733
6305,1882
6306,1856
6307,1680
6308,1660
6309,1815
6310,1933
6311,1953
6312,2194
6313,2605
6314,2853
6315,2734
6316,2543
6317,2513
6318,2463
6319,2145
6320,1856
6321,1769
6322,1776
6323,1690
6324,1637
6325,1793
6326,1936
6327,1879
6328,1753
6329,1792
6330,1917
6331,1889
6332,1738
6333,1733
6334,1887
6335,1897
6336,1741
6337,1719
6338,1873
6339,1922
6340,1776
6341,1725
6342,1840
6343,1931
6344,1831
6345,1754
6346,1853
6347,1957
6348,1875
6349,1768
6350,1851
6351,1964
6352,1906
6353,1765
6354,1813
6355,1965
6356,1968
6357,1823
6358,1811
6359,1953
6360,1990
6361,1841
6362,1804
6363,1947
6364,2022
6365,1895
6366,1881
6367,2000
6368,2080
6369,1926
6370,1872
6371,1993
6372,2106
6373,2001
6374,1914
6375,2005
6376,2138
6377,2092
6378,1954
6379,2015
6380,2154
6381,2156
6382,2003
6383,2000
6384,2128
6385,2128
6386,1941
6387,1891
6388,2013
6389,2055
6390,1873
6391,1791
6392,1878
6393,1914
6394,1770
6395,1693
6396,1764
6397,1826
6398,1698
6399,1603
6400,1686
6401,1812
6402,1738
6403,1583
6404,1632
6405,1770
6406,1734
6407,1602
6408,1626
6409,1766
6410,1765
6411,1600
6412,1586
6413,1744
6414,1808
6415,1666
6416,1618
6417,1744
6418,1808
6419,1680
6420,1604
6421,1710
6422,1814
6423,1723
6424,1645
6425,1728
6426,1847
6427,1763
6428,1648
6429,1712
6430,1840
6431,1807
6432,1661
6433,1680
6434,1796
6435,1788
6436,1648
6437,1648
6438,1794
6439,1811
6440,1648
6441,1629
6442,1769
6443,1845
6444,1703
6445,1637
6446,1743
6447,1830
6448,1711
6449,1627
6450,1727
6451,1838
6452,1744
6453,1609
6454,1683
6455,1809
6456,1781
6457,1616
6458,1640
6459,1789
6460,1799
6461,1664
6462,1667
6463,1787
6464,1805
6465,1649
6466,1622
6467,1761
6468,1835
6469,1687
6470,1603
6471,1737
6472,1840
6473,1736
6474,1618
6475,1703
6476,1833
6477,1762
6478,1635
6479,1694
6480,1822
6481,1783
6482,1637
6483,1666
6484,1815
6485,1831
6486,1692
6487,1696
6488,1827
6489,1857
6490,1697
6491,1648
6492,1791
6493,1867
6494,1721
6495,1643
6496,1767
6497,1872
6498,1773
6499,1680
6500,1763
6501,1863
6502,1795
6503,1669
6504,1729
6505,1875
6506,1835
6507,1712
6508,1767
6509,1899
6510,1867
6511,1698
6512,1693
6513,1840
6514,1873
6515,1722
6516,1689
6517,1834
6518,1887
6519,1747
6520,1680
6521,1806
6522,1898
6523,1786
6524,1707
6525,1800
6526,1906
6527,1826
6528,1730
6529,1810
6530,1935
6531,1872
6532,1737
6533,1768
6534,1909
6535,1926
6536,1814
6537,1851
6538,2010
6539,2019
6540,1842
6541,1841
6542,1979
6543,2034
6544,1909
6545,1871
6546,1957
6547,1984
6548,1819
6549,1717
6550,1814
6551,1918
6552,1829
6553,1697
6554,1767
6555,1905
6556,1847
6557,1693
6558,1705
6559,1827
6560,1821
6561,1674
6562,1694
6563,1854
6564,1869
6565,1715
6566,1702
6567,1841
6568,1892
6569,1731
6570,1637
6571,1749
6572,1903
6573,1949
6574,2155
6575,2559
6576,2891
6577,2846
6578,2610
6579,2517
6580,2512
6581,2229
6582,1805
6583,1643
6584,1722
6585,1742
6586,1615
6587,1739
6588,1931
6589,1968
6590,1811
6591,1755
6592,1874
6593,1904
6594,1776
6595,1742
6596,1872
6597,1958
6598,1839
6599,1740
6600,1835
6601,1940
6602,1865
6603,1743
6604,1831
6605,1968
6606,1911
6607,1786
6608,1853
6609,2000
6610,1978
6611,1817
6612,1829
6613,1968
6614,1972
6615,1808
6616,1797
6617,1958
6618,2026
6619,1881
6620,1798
6621,1931
6622,2025
6623,1910
6624,1840
6625,1971
6626,2112
6627,2029
6628,1911
6629,1991
6630,2114
6631,2064
6632,1935
6633,1995
6634,2157
6635,2149
6636,1973
6637,2016
6638,2166
6639,2176
6640,2045
6641,2039
6642,2186
6643,2243
6644,2082
6645,2000
6646,2120
6647,2193
6648,2046
6649,1951
6650,2013
6651,2081
6652,1948
6653,1831
6654,1881
6655,1959
6656,1854
6657,1712
6658,1766
6659,1867
6660,1798
6661,1642
6662,1671
6663,1814
6664,1803
6665,1634
6666,1610
6667,1764
6668,1808
6669,1665
6670,1621
6671,1763
6672,1823
6673,1690
6674,1619
6675,1744
6676,1833
6677,1712
6678,1614
6679,1693
6680,1825
6681,1771
6682,1644
6683,1674
6684,1802
6685,1769
6686,1627
6687,1665
6688,1826
6689,1831
6690,1681
6691,1665
6692,1801
6693,1839
6694,1694
6695,1648
6696,1776
6697,1840
6698,1702
6699,1646
6700,1775
6701,1872
6702,1770
6703,1645
6704,1728
6705,1846
6706,1777
6707,1680
6708,1743
6709,1856
6710,1814
6711,1668
6712,1687
6713,1813
6714,1805
6715,1631
6716,1616
6717,1791
6718,1847
6719,1701
6720,1663
6721,1791
6722,1860
6723,1729
6724,1663
6725,1783
6726,1877
6727,1767
6728,1674
6729,1762
6730,1866
6731,1788
6732,1680
6733,1745
6734,1875
6735,1815
6736,1678
6737,1712
6738,1856
6739,1845
6740,1691
6741,1691
6742,1843
6743,1891
6744,1744
6745,1699
6746,1837
6747,1890
6748,1744
6749,1690
6750,1817
6751,1914
6752,1803
6753,1690
6754,1789
6755,1919
6756,1847
6757,1729
6758,1776
6759,1894
6760,1856
6761,1750
6762,1786
6763,1906
6764,1883
6765,1727
6766,1721
6767,1873
6768,1917
6769,1776
6770,1754
6771,1885
6772,1930
6773,1773
6774,1706
6775,1841
6776,1937
6777,1829
6778,1731
6779,1839
6780,1965
6781,1872
6782,1770
6783,1840
6784,1940
6785,1901
6786,1751
6787,1787
6788,1933
6789,1921
6790,1769
6791,1759
6792,1899
6793,1926
6794,1765
6795,1721
6796,1872
6797,1961
6798,1809
6799,1739
6800,1878
6801,1978
6802,1905
6803,1838
6804,1949
6805,2052
6806,1963
6807,1831
6808,1901
6809,2065
6810,2045
6811,1935
6812,1952
6813,2018
6814,1958
6815,1764
6816,1753
6817,1915
6818,1943
6819,1778
6820,1762
6821,1895
6822,1945
6823,1791
6824,1710
6825,1824
6826,1924
6827,1801
6828,1718
6829,1811
6830,1922
6831,1840
6832,1728
6833,1806
6834,1917
6835,1849
6836,1683
6837,1697
6838,1893
6839,2017
6840,2099
6841,2393
6842,2810
6843,3004
6844,2762
6845,2547
6846,2559
6847,2448
6848,2054
6849,1725
6850,1710
6851,1786
6852,1746
6853,1778
6854,1922
6855,2034
6856,1955
6857,1795
6858,1854
6859,1980
6860,1930
6861,1808
6862,1869
6863,2001
6864,1952
6865,1801
6866,1807
6867,1955
6868,1983
6869,1838
6870,1801
6871,1935
6872,1984
6873,1849
6874,1804
6875,1930
6876,2000
6877,1875
6878,1798
6879,1915
6880,2029
6881,1933
6882,1801
6883,1887
6884,2033
6885,1999
6886,1857
6887,1885
6888,2027
6889,2029
6890,1893
6891,1929
6892,2079
6893,2119
6894,1983
6895,1966
6896,2083
6897,2123
6898,1975
6899,1939
6900,2096
6901,2205
6902,2087
6903,2029
6904,2137
6905,2224
6906,2115
6907,2023
6908,2118
6909,2249
6910,2170
6911,2014
6912,2047
6913,2192
6914,2162
6915,2000
6916,1982
6917,2096
6918,2068
6919,1859
6920,1802
6921,1921
6922,1954
6923,1783
6924,1691
6925,1806
6926,1875
6927,1748
6928,1652
6929,1745
6930,1840
6931,1715
6932,1599
6933,1690
6934,1818
6935,1759
6936,1616
6937,1681
6938,1821
6939,1780
6940,1642
6941,1658
6942,1794
6943,1805
6944,1663
6945,1662
6946,1805
6947,1831
6948,1669
6949,1612
6950,1762
6951,1855
6952,1740
6953,1664
6954,1777
6955,1872
6956,1750
6957,1649
6958,1740
6959,1872
6960,1795
6961,1649
6962,1699
6963,1838
6964,1797
6965,1651
6966,1685
6967,1840
6968,1853
6969,1715
6970,1699
6971,1843
6972,1887
6973,1740
6974,1694
6975,1822
6976,1886
6977,1760
6978,1723
6979,1823
6980,1901
6981,1776
6982,1674
6983,1763
6984,1830
6985,1792
6986,1680
6987,1744
6988,1878
6989,1838
6990,1682
6991,1701
6992,1841
6993,1845
6994,1686
6995,1669
6996,1831
6997,1881
6998,1742
6999,1712
7000,1840
7001,1889
7002,1738
7003,1663
7004,1776
7005,1862
7006,1763
7007,1659
7008,1753
7009,1887
7010,1815
7011,1699
7012,1750
7013,1883
7014,1834
7015,1680
7016,1701
7017,1851
7018,1869
7019,1741
7020,1749
7021,1877
7022,1897
7023,1731
7024,1690
7025,1835
7026,1914
7027,1779
7028,1721
7029,1815
7030,1905
7031,1806
7032,1706
7033,1781
7034,1903
7035,1840
7036,1727
7037,1797
7038,1911
7039,1856
7040,1701
7041,1738
7042,1894
7043,1891
7044,1726
7045,1726
7046,1871
7047,1909
7048,1756
7049,1732
7050,1878
7051,1939
7052,1783
7053,1712
7054,1826
7055,1931
7056,1834
7057,1744
7058,1834
7059,1923
7060,1833
7061,1718
7062,1802
7063,1925
7064,1872
7065,1730
7066,1792
7067,1973
7068,1983
7069,1837
7070,1846
7071,1996
7072,2027
7073,1891
7074,1865
7075,2019
7076,2096
7077,1921
7078,1824
7079,1914
7080,1963
7081,1829
7082,1773
7083,1879
7084,1971
7085,1868
7086,1730
7087,1791
7088,1907
7089,1840
7090,1712
7091,1751
7092,1904
7093,1901
7094,1754
7095,1757
7096,1903
7097,1923
7098,1759
7099,1718
7100,1849
7101,1888
7102,1737
7103,1691
7104,1910
7105,2185
7106,2358
7107,2559
7108,2831
7109,2960
7110,2704
7111,2429
7112,2375
7113,2299
7114,1979
7115,1633
7116,1606
7117,1795
7118,1859
7119,1776
7120,1818
7121,1959
7122,1961
7123,1792
7124,1776
7125,1910
7126,1964
7127,1809
7128,1759
7129,1889
7130,1974
7131,1850
7132,1779
7133,1891
7134,1990
7135,1889
7136,1761
7137,1829
7138,1953
7139,1919
7140,1815
7141,1872
7142,2000
7143,1968
7144,1838
7145,1841
7146,1982
7147,2007
7148,1872
7149,1851
7150,1974
7151,2028
7152,1890
7153,1847
7154,1982
7155,2069
7156,1937
7157,1862
7158,1982
7159,2106
7160,2005
7161,1916
7162,2013
7163,2147
7164,2110
7165,1963
7166,2019
7167,2173
7168,2171
7169,2005
7170,2006
7171,2174
7172,2211
7173,2066
7174,2010
7175,2087
7176,2193
7177,2047
7178,1978
7179,2094
7180,2160
7181,2013
7182,1904
7183,1968
7184,2032
7185,1875
7186,1740
7187,1793
7188,1893
7189,1813
7190,1666
7191,1700
7192,1819
7193,1780
7194,1630
7195,1633
7196,1780
7197,1791
7198,1617
7199,1584
7200,1741
7201,1823
7202,1691
7203,1633
7204,1744
7205,1808
7206,1699
7207,1598
7208,1701
7209,1819
7210,1733
7211,1635
7212,1711
7213,1845
7214,1776
7215,1659
7216,1712
7217,1858
7218,1831
7219,1662
7220,1669
7221,1831
7222,1850
7223,1712
7224,1707
7225,1840
7226,1887
7227,1727
7228,1671
7229,1792
7230,1870
7231,1742
7232,1661
7233,1781
7234,1878
7235,1780
7236,1648
7237,1739
7238,1871
7239,1810
7240,1679
7241,1738
7242,1875
7243,1853
7244,1714
7245,1731
7246,1840
7247,1841
7248,1683
7249,1674
7250,1814
7251,1851
7252,1715
7253,1675
7254,1799
7255,1858
7256,1728
7257,1661
7258,1776
7259,1872
7260,1775
7261,1710
7262,1795
7263,1909
7264,1822
7265,1680
7266,1738
7267,1870
7268,1840
7269,1690
7270,1712
7271,1866
7272,1873
7273,1728
7274,1713
7275,1857
7276,1898
7277,1739
7278,1693
7279,1846
7280,1927
7281,1779
7282,1723
7283,1826
7284,1915
7285,1817
7286,1725
7287,1787
7288,1898
7289,1830
7290,1702
7291,1758
7292,1891
7293,1868
7294,1725
7295,1744
7296,1878
7297,1873
7298,1729
7299,1739
7300,1893
7301,1923
7302,1776
7303,1735
7304,1873
7305,1946
7306,1791
7307,1735
7308,1845
7309,1934
7310,1808
7311,1718
7312,1814
7313,1921
7314,1840
7315,1760
7316,1854
7317,1993
7318,1975
7319,1856
7320,1887
7321,2015
7322,2004
7323,1861
7324,1846
7325,1988
7326,2043
7327,1939
7328,1893
7329,1955
7330,1952
7331,1782
7332,1715
7333,1855
7334,1954
7335,1829
7336,1714
7337,1804
7338,1906
7339,1807
7340,1717
7341,1795
7342,1921
7343,1840
7344,1669
7345,1713
7346,1877
7347,1887
7348,1747
7349,1744
7350,1872
7351,1887
7352,1697
7353,1609
7354,1794
7355,2026
7356,2137
7357,2359
7358,2722
7359,2959
7360,2791
7361,2486
7362,2431
7363,2387
7364,2103
7365,1763
7366,1676
7367,1758
7368,1776
7369,1713
7370,1792
7371,1946
7372,1951
7373,1823
7374,1817
7375,1936
7376,1936
7377,1757
7378,1712
7379,1878
7380,1955
7381,1810
7382,1725
7383,1840
7384,1945
7385,1845
7386,1745
7387,1838
7388,1942
7389,1872
7390,1754
7391,1838
7392,1970
7393,1918
7394,1759
7395,1805
7396,1961
7397,1947
7398,1815
7399,1837
7400,1993
7401,2009
7402,1845
7403,1804
7404,1955
7405,2059
7406,1897
7407,1827
7408,1983
7409,2098
7410,1976
7411,1891
7412,1975
7413,2109
7414,2032
7415,1929
7416,2002
7417,2147
7418,2098
7419,1968
7420,2019
7421,2164
7422,2161
7423,2003
7424,2011
7425,2163
7426,2178
7427,2015
7428,1988
7429,2128
7430,2179
7431,2018
7432,1911
7433,1986
7434,2036
7435,1877
7436,1763
7437,1835
7438,1931
7439,1825
7440,1696
7441,1744
7442,1843
7443,1775
7444,1621
7445,1649
7446,1779
7447,1770
7448,1641
7449,1658
7450,1792
7451,1811
7452,1677
7453,1657
7454,1781
7455,1824
7456,1679
7457,1634
7458,1775
7459,1855
7460,1717
7461,1619
7462,1717
7463,1837
7464,1747
7465,1665
7466,1728
7467,1840
7468,1759
7469,1653
7470,1712
7471,1853
7472,1830
7473,1662
7474,1657
7475,1806
7476,1851
7477,1706
7478,1673
7479,1809
7480,1862
7481,1718
7482,1663
7483,1726
7484,1856
7485,1745
7486,1664
7487,1760
7488,1869
7489,1778
7490,1706
7491,1776
7492,1883
7493,1820
7494,1683
7495,1727
7496,1856
7497,1744
7498,1684
7499,1683
7500,1823
7501,1845
7502,1691
7503,1648
7504,1797
7505,1863
7506,1715
7507,1648
7508,1771
7509,1855
7510,1745
7511,1682
7512,1783
7513,1885
7514,1775
7515,1644
7516,1737
7517,1859
7518,1802
7519,1664
7520,1695
7521,1854
7522,1857
7523,1712
7524,1715
7525,1856
7526,1840
7527,1695
7528,1680
7529,1826
7530,1873
7531,1751
7532,1707
7533,1825
7534,1889
7535,1744
7536,1671
7537,1785
7538,1904
7539,1808
7540,1707
7541,1778
7542,1907
7543,1840
7544,1711
7545,1762
7546,1903
7547,1882
7548,1719
7549,1728
7550,1868
7551,1874
7552,1721
7553,1702
7554,1856
7555,1924
7556,1779
7557,1717
7558,1829
7559,1909
7560,1776
7561,1751
7562,1849
7563,1927
7564,1807
7565,1706
7566,1782
7567,1904
7568,1835
7569,1722
7570,1788
7571,1919
7572,1875
7573,1721
7574,1747
7575,1919
7576,1949
7577,1823
7578,1855
7579,2005
7580,2030
7581,1862
7582,1826
7583,1953
7584,2057
7585,1950
7586,1855
7587,1905
7588,1965
7589,1841
7590,1721
7591,1814
7592,1948
7593,1877
7594,1749
7595,1815
7596,1924
7597,1869
7598,1699
7599,1723
7600,1883
7601,1893
7602,1739
7603,1712
7604,1851
7605,1904
7606,1748
7607,1718
7608,1846
7609,1899
7610,1733
7611,1648
7612,1759
7613,1968
7614,2090
7615,2252
7616,2627
7617,2956
7618,2911
7619,2608
7620,2491
7621,2466
7622,2174
7623,1749
7624,1601
7625,1714
7626,1785
7627,1712
7628,1751
7629,1932
7630,1979
7631,1826
7632,1776
7633,1886
7634,1953
7635,1819
7636,1748
7637,1862
7638,1962
7639,1853
7640,1746
7641,1838
7642,1958
7643,1897
7644,1783
7645,1850
7646,1968
7647,1926
7648,1792
7649,1818
7650,1948
7651,1953
7652,1819
7653,1838
7654,1994
7655,2007
7656,1854
7657,1808
7658,1959
7659,2055
7660,1920
7661,1847
7662,1967
7663,2095
7664,1994
7665,1887
7666,1983
7667,2105
7668,2030
7669,1920
7670,1991
7671,2138
7672,2103
7673,1968
7674,2000
7675,2160
7676,2175
7677,2021
7678,2022
7679,2202
7680,2254
7681,2106
7682,2046
7683,2191
7684,2259
7685,2121
7686,2017
7687,2119
7688,2192
7689,2032
7690,1941
7691,2007
7692,2097
7693,1950
7694,1806
7695,1855
7696,1955
7697,1881
7698,1718
7699,1725
7700,1850
7701,1840
7702,1687
7703,1668
7704,1779
7705,1802
7706,1654
7707,1616
7708,1757
7709,1820
7710,1682
7711,1654
7712,1763
7713,1838
7714,1719
7715,1631
7716,1709
7717,1806
7718,1734
7719,1610
7720,1675
7721,1808
7722,1765
7723,1648
7724,1681
7725,1813
7726,1819
7727,1669
7728,1682
7729,1846
7730,1870
7731,1711
7732,1673
7733,1809
7734,1872
7735,1758
7736,1683
7737,1777
7738,1874
7739,1770
7740,1692
7741,1776
7742,1875
7743,1776
7744,1683
7745,1755
7746,1872
7747,1817
7748,1671
7749,1765
7750,1878
7751,1856
7752,1706
7753,1700
7754,1840
7755,1887
7756,1730
7757,1693
7758,1827
7759,1871
7760,1709
7761,1636
7762,1779
7763,1875
7764,1745
7765,1653
7766,1754
7767,1874
7768,1779
7769,1658
7770,1739
7771,1867
7772,1826
7773,1711
7774,1696
7775,1853
7776,1826
7777,1684
7778,1703
7779,1851
7780,1859
7781,1697
7782,1667
7783,1807
7784,1869
7785,1730
7786,1666
7787,1806
7788,1904
7789,1791
7790,1687
7791,1782
7792,1903
7793,1815
7794,1711
7795,1790
7796,1902
7797,1841
7798,1705
7799,1761
7800,1904
7801,1874
7802,1737
7803,1735
7804,1875
7805,1898
7806,1751
7807,1729
7808,1856
7809,1899
7810,1757
7811,1712
7812,1867
7813,1948
7814,1815
7815,1715
7816,1818
7817,1921
7818,1823
7819,1699
7820,1781
7821,1929
7822,1872
7823,1721
7824,1770
7825,1906
7826,1875
7827,1727
7828,1747
7829,1883
7830,1886
7831,1738
7832,1722
7833,1869
7834,1931
7835,1803
7836,1751
7837,1883
7838,1962
7839,1835
7840,1767
7841,1893
7842,2032
7843,1936
7844,1812
7845,1889
7846,2017
7847,1977
7848,1866
7849,1918
7850,2031
7851,1959
7852,1750
7853,1735
7854,1889
7855,1914
7856,1774
7857,1747
7858,1877
7859,1913
7860,1751
7861,1683
7862,1807
7863,1887
7864,1746
7865,1701
7866,1808
7867,1918
7868,1792
7869,1667
7870,1754
7871,1870
7872,1808
7873,1685
7874,1725
7875,1818
7876,1793
7877,1747
7878,1934
7879,2358
7880,2678
7881,2739
7882,2755
7883,2749
7884,2646
7885,2358
7886,2093
7887,1931
7888,1806
7889,1589
7890,1558
7891,1744
7892,1921
7893,1850
7894,1762
7895,1824
7896,1939
7897,1835
7898,1566
7899,1732
7900,1888
7901,1856
7902,1680
7903,1708
7904,1884
7905,1917
7906,1779
7907,1767
7908,1904
7909,1941
7910,1776
7911,1726
7912,1858
7913,1951
7914,1834
7915,1775
7916,1874
7917,1984
7918,1874
7919,1778
7920,1872
7921,2014
7922,1958
7923,1834
7924,1894
7925,2047
7926,2019
7927,1867
7928,1878
7929,2034
7930,2067
7931,1908
7932,1878
7933,2032
7934,2098
7935,1946
7936,1904
7937,2059
7938,2147
7939,2026
7940,1942
7941,2080
7942,2197
7943,2096
7944,1954
7945,2030
7946,2199
7947,2147
7948,2009
7949,2064
7950,2190
7951,2142
7952,1948
7953,1943
7954,2078
7955,2057
7956,1867
7957,1821
7958,1923
7959,1935
7960,1748
7961,1642
7962,1753
7963,1840
7964,1703
7965,1618
7966,1723
7967,1809
7968,1712
7969,1587
7970,1658
7971,1777
7972,1697
7973,1567
7974,1610
7975,1754
7976,1723
7977,1582
7978,1602
7979,1761
7980,1763
7981,1596
7982,1574
7983,1728
7984,1782
7985,1633
7986,1587
7987,1718
7988,1791
7989,1648
7990,1581
7991,1693
7992,1795
7993,1698
7994,1584
7995,1693
7996,1841
7997,1755
7998,1631
7999,1689
8000,1822
8001,1787
8002,1610
8003,1666
8004,1808
8005,1808
8006,1662
8007,1643
8008,1777
8009,1821
8010,1669
8011,1598
8012,1738
8013,1825
8014,1705
8015,1639
8016,1748
8017,1850
8018,1702
8019,1603
8020,1707
8021,1818
8022,1726
8023,1600
8024,1671
8025,1825
8026,1759
8027,1601
8028,1646
8029,1795
8030,1783
8031,1659
8032,1662
8033,1791
8034,1785
8035,1623
8036,1607
8037,1745
8038,1804
8039,1655
8040,1643
8041,1744
8042,1845
8043,1709
8044,1579
8045,1689
8046,1817
8047,1730
8048,1643
8049,1707
8050,1821
8051,1776
8052,1648
8053,1679
8054,1822
8055,1815
8056,1671
8057,1669
8058,1811
8059,1841
8060,1680
8061,1650
8062,1790
8063,1845
8064,1699
8065,1629
8066,1771
8067,1863
8068,1731
8069,1649
8070,1755
8071,1858
8072,1774
8073,1663
8074,1732
8075,1856
8076,1803
8077,1671
8078,1712
8079,1847
8080,1819
8081,1665
8082,1680
8083,1835
8084,1875
8085,1739
8086,1715
8087,1849
8088,1874
8089,1719
8090,1653
8091,1782
8092,1872
8093,1770
8094,1684
8095,1814
8096,1968
8097,1881
8098,1776
8099,1862
8100,2001
8101,1947
8102,1818
8103,1871
8104,2018
8105,2000
8106,1807
8107,1789
8108,1911
8109,1902
8110,1742
8111,1733
8112,1866
8113,1919
8114,1767
8115,1707
8116,1825
8117,1897
8118,1763
8119,1689
8120,1791
8121,1887
8122,1786
8123,1690
8124,1775
8125,1909
8126,1857
8127,1707
8128,1729
8129,1850
8130,1803
8131,1630
8132,1741
8133,2091
8134,2384
8135,2517
8136,2678
8137,2880
8138,2823
8139,2500
8140,2310
8141,2241
8142,2106
8143,1788
8144,1588
8145,1704
8146,1863
8147,1823
8148,1770
8149,1853
8150,1978
8151,1910
8152,1797
8153,1840
8154,1968
8155,1930
8156,1776
8157,1792
8158,1952
8159,1979
8160,1810
8161,1777
8162,1932
8163,2000
8164,1862
8165,1811
8166,1931
8167,2015
8168,1897
8169,1817
8170,1914
8171,2011
8172,1923
8173,1870
8174,1946
8175,2061
8176,1968
8177,1847
8178,1901
8179,2039
8180,2013
8181,1870
8182,1909
8183,2064
8184,2083
8185,1936
8186,1922
8187,2068
8188,2121
8189,1981
8190,1950
8191,2083
8192,2160
8193,2054
8194,2001
8195,2108
8196,2223
8197,2160
8198,2095
8199,2159
8200,2255
8201,2181
8202,2043
8203,2112
8204,2256
8205,2235
8206,2087
8207,2068
8208,2160
8209,2142
8210,1983
8211,1930
8212,2043
8213,2070
8214,1877
8215,1791
8216,1881
8217,1939
8218,1802
8219,1741
8220,1829
8221,1909
8222,1778
8223,1660
8224,1749
8225,1884
8226,1809
8227,1692
8228,1749
8229,1865
8230,1830
8231,1663
8232,1701
8233,1859
8234,1871
8235,1722
8236,1698
8237,1840
8238,1893
8239,1738
8240,1680
8241,1827
8242,1893
8243,1749
8244,1713
8245,1840
8246,1933
8247,1823
8248,1744
8249,1829
8250,1930
8251,1855
8252,1685
8253,1744
8254,1903
8255,1872
8256,1759
8257,1772
8258,1894
8259,1891
8260,1777
8261,1794
8262,1893
8263,1882
8264,1716
8265,1695
8266,1827
8267,1905
8268,1771
8269,1697
8270,1789
8271,1888
8272,1778
8273,1682
8274,1774
8275,1898
8276,1792
8277,1685
8278,1743
8279,1850
8280,1795
8281,1667
8282,1701
8283,1837
8284,1842
8285,1681
8286,1668
8287,1815
8288,1847
8289,1709
8290,1680
8291,1808
8292,1874
8293,1726
8294,1674
8295,1775
8296,1856
8297,1744
8298,1657
8299,1737
8300,1855
8301,1776
8302,1655
8303,1712
8304,1845
8305,1797
8306,1681
8307,1728
8308,1842
8309,1808
8310,1665
8311,1681
8312,1827
8313,1851
8314,1680
8315,1617
8316,1742
8317,1841
8318,1719
8319,1678
8320,1777
8321,1855
8322,1742
8323,1643
8324,1741
8325,1842
8326,1759
8327,1661
8328,1721
8329,1853
8330,1797
8331,1653
8332,1677
8333,1823
8334,1827
8335,1671
8336,1666
8337,1789
8338,1814
8339,1662
8340,1634
8341,1767
8342,1843
8343,1716
8344,1678
8345,1780
8346,1877
8347,1746
8348,1645
8349,1723
8350,1839
8351,1753
8352,1645
8353,1723
8354,1866
8355,1838
8356,1765
8357,1823
8358,1949
8359,1936
8360,1764
8361,1758
8362,1914
8363,1945
8364,1798
8365,1776
8366,1877
8367,1886
8368,1685
8369,1618
8370,1732
8371,1823
8372,1696
8373,1634
8374,1726
8375,1831
8376,1726
8377,1616
8378,1668
8379,1785
8380,1727
8381,1595
8382,1619
8383,1737
8384,1743
8385,1627
8386,1633
8387,1760
8388,1791
8389,1631
8390,1569
8391,1651
8392,1744
8393,1730
8394,1905
8395,2319
8396,2682
8397,2687
8398,2531
8399,2442
8400,2433
8401,2174
8402,1792
8403,1584
8404,1570
8405,1503
8406,1458
8407,1595
8408,1788
8409,1795
8410,1619
8411,1601
8412,1744
8413,1765
8414,1584
8415,1566
8416,1718
8417,1776
8418,1621
8419,1558
8420,1681
8421,1793
8422,1674
8423,1600
8424,1695
8425,1789
8426,1681
8427,1589
8428,1680
8429,1803
8430,1734
8431,1615
8432,1680
8433,1811
8434,1787
8435,1657
8436,1675
8437,1818
8438,1833
8439,1680
8440,1683
8441,1813
8442,1879
8443,1730
8444,1673
8445,1799
8446,1893
8447,1785
8448,1721
8449,1815
8450,1925
8451,1819
8452,1728
8453,1812
8454,1962
8455,1910
8456,1785
8457,1826
8458,1971
8459,1968
8460,1839
8461,1843
8462,1983
8463,1993
8464,1860
8465,1840
8466,1967
8467,1995
8468,1807
8469,1710
8470,1803
8471,1882
8472,1744
8473,1648
8474,1685
8475,1742
8476,1600
8477,1503
8478,1579
8479,1681
8480,1578
8481,1413
8482,1433
8483,1585
8484,1585
8485,1435
8486,1441
8487,1599
8488,1609
8489,1427
8490,1396
8491,1561
8492,1641
8493,1489
8494,1406
8495,1517
8496,1616
8497,1490
8498,1463
8499,1559
8500,1647
8501,1535
8502,1430
8503,1505
8504,1658
8505,1615
8506,1476
8507,1509
8508,1652
8509,1641
8510,1511
8511,1519
8512,1654
8513,1702
8514,1559
8515,1523
8516,1669
8517,1744
8518,1600
8519,1535
8520,1671
8521,1757
8522,1641
8523,1595
8524,1663
8525,1731
8526,1617
8527,1578
8528,1643
8529,1744
8530,1655
8531,1531
8532,1579
8533,1716
8534,1687
8535,1527
8536,1565
8537,1727
8538,1749
8539,1586
8540,1535
8541,1677
8542,1732
8543,1587
8544,1521
8545,1648
8546,1737
8547,1589
8548,1525
8549,1631
8550,1755
8551,1661
8552,1535
8553,1616
8554,1744
8555,1680
8556,1619
8557,1637
8558,1763
8559,1729
8560,1625
8561,1647
8562,1773
8563,1776
8564,1616
8565,1595
8566,1716
8567,1767
8568,1631
8569,1608
8570,1750
8571,1814
8572,1650
8573,1570
8574,1680
8575,1782
8576,1665
8577,1616
8578,1695
8579,1815
8580,1763
8581,1606
8582,1664
8583,1808
8584,1777
8585,1625
8586,1647
8587,1797
8588,1808
8589,1657
8590,1650
8591,1788
8592,1837
8593,1702
8594,1649
8595,1781
8596,1875
8597,1746
8598,1670
8599,1776
8600,1853
8601,1735
8602,1637
8603,1727
8604,1872
8605,1808
8606,1723
8607,1751
8608,1873
8609,1840
8610,1710
8611,1716
8612,1862
8613,1881
8614,1733
8615,1709
8616,1856
8617,1906
8618,1771
8619,1747
8620,1855
8621,1930
8622,1821
8623,1765
8624,1890
8625,2020
8626,1904
8627,1841
8628,1911
8629,2041
8630,1973
8631,1845
8632,1923
8633,2063
8634,1984
8635,1771
8636,1744
8637,1871
8638,1890
8639,1762
8640,1778
8641,1914
8642,1958
8643,1797
8644,1733
8645,1850
8646,1936
8647,1814
8648,1776
8649,1867
8650,1965
8651,1777
8652,1744
8653,1819
8654,1965
8655,1887
8656,1786
8657,1797
8658,1894
8659,1867
8660,1889
8661,2160
8662,2605
8663,2877
8664,2880
8665,2851
8666,2797
8667,2689
8668,2337
8669,2017
8670,1895
8671,1843
8672,1696
8673,1681
8674,1856
8675,2019
8676,1936
8677,1840
8678,1911
8679,2041
8680,1950
8681,1823
8682,1892
8683,2039
8684,1983
8685,1827
8686,1847
8687,2006
8688,2029
8689,1883
8690,1859
8691,2001
8692,2055
8693,1887
8694,1850
8695,1986
8696,2075
8697,1940
8698,1879
8699,1978
8700,2093
8701,1982
8702,1910
8703,2018
8704,2139
8705,2031
8706,1937
8707,1990
8708,2130
8709,2096
8710,1982
8711,2017
8712,2176
8713,2181
8714,2032
8715,2045
8716,2182
8717,2209
8718,2063
8719,2031
8720,2182
8721,2261
8722,2121
8723,2045
8724,2187
8725,2307
8726,2170
8727,2097
8728,2189
8729,2339
8730,2261
8731,2113
8732,2171
8733,2314
8734,2254
8735,2125
8736,2138
8737,2239
8738,2199
8739,1959
8740,1895
8741,2021
8742,2033
8743,1852
8744,1808
8745,1901
8746,1989
8747,1818
8748,1741
8749,1861
8750,1981
8751,1859
8752,1727
8753,1808
8754,1930
8755,1825
8756,1746
8757,1819
8758,1943
8759,1903
8760,1747
8761,1763
8762,1921
8763,1915
8764,1759
8765,1765
8766,1911
8767,1941
8768,1785
8769,1758
8770,1923
8771,1998
8772,1830
8773,1767
8774,1897
8775,2000
8776,1885
8777,1776
8778,1861
8779,1993
8780,1894
8781,1817
8782,1872
8783,1985
8784,1959
8785,1828
8786,1869
8787,1986
8788,1963
8789,1801
8790,1799
8791,1957
8792,1995
8793,1862
8794,1846
8795,1959
8796,1994
8797,1839
8798,1805
8799,1929
8800,2023
8801,1878
8802,1783
8803,1877
8804,2011
8805,1927
8806,1807
8807,1869
8808,2005
8809,1961
8810,1825
8811,1861
8812,2012
8813,1990
8814,1843
8815,1840
8816,1981
8817,2003
8818,1851
8819,1799
8820,1933
8821,2011
8822,1863
8823,1793
8824,1919
8825,2019
8826,1904
8827,1814
8828,1904
8829,2025
8830,1923
8831,1847
8832,1922
8833,2032
8834,1965
8835,1874
8836,1923
8837,2034
8838,1970
8839,1833
8840,1845
8841,1984
8842,2027
8843,1883
8844,1883
8845,2011
8846,2061
8847,1889
8848,1838
8849,1954
8850,2027
8851,1890
8852,1829
8853,1936
8854,2046
8855,1931
8856,1831
8857,1898
8858,2046
8859,1977
8860,1830
8861,1861
8862,2009
8863,2000
8864,1831
8865,1839
8866,1989
8867,2010
8868,1865
8869,1883
8870,2013
8871,2032
8872,1905
8873,1851
8874,1966
8875,2064
8876,1925
8877,1881
8878,1958
8879,2083
8880,1963
8881,1855
8882,1941
8883,2096
8884,2026
8885,1926
8886,1968
8887,2096
8888,2080
8889,1968
8890,2000
8891,2149
8892,2141
8893,1929
8894,1854
8895,1970
8896,2032
8897,1886
8898,1813
8899,1927
8900,2003
8901,1863
8902,1775
8903,1872
8904,1983
8905,1857
8906,1802
8907,1875
8908,1987
8909,1905
8910,1819
8911,1841
8912,1977
8913,1937
8914,1771
8915,1767
8916,1899
8917,1878
8918,1727
8919,1788
8920,2115
8921,2432
8922,2559
8923,2753
8924,2955
8925,2913
8926,2583
8927,2393
8928,2275
8929,2137
8930,1792
8931,1600
8932,1707
8933,1899
8934,1873
8935,1778
8936,1861
8937,2011
8938,1973
8939,1827
8940,1828
8941,1971
8942,1982
8943,1808
8944,1789
8945,1943
8946,2005
8947,1860
8948,1817
8949,1943
8950,2032
8951,1890
8952,1843
8953,1941
8954,2046
8955,1930
8956,1840
8957,1919
8958,2059
8959,1982
8960,1921
8961,1975
8962,2084
8963,2017
8964,1862
8965,1887
8966,2064
8967,2107
8968,1955
8969,1917
8970,2046
8971,2115
8972,1967
8973,1930
8974,2071
8975,2165
8976,2027
8977,1967
8978,2094
8979,2207
8980,2067
8981,1965
8982,2071
8983,2226
8984,2160
8985,2041
8986,2117
8987,2245
8988,2193
8989,2073
8990,2094
8991,2229
8992,2215
8993,2057
8994,2037
8995,2173
8996,2171
8997,1965
8998,1915
8999,2038
9000,2101
9001,1913
9002,1805
9003,1890
9004,1973
9005,1826
9006,1714
9007,1791
9008,1904
9009,1809
9010,1694
9011,1745
9012,1869
9013,1825
9014,1767
9015,1798
9016,1897
9017,1867
9018,1695
9019,1691
9020,1839
9021,1861
9022,1703
9023,1691
9024,1827
9025,1891
9026,1747
9027,1696
9028,1808
9029,1897
9030,1762
9031,1681
9032,1787
9033,1919
9034,1822
9035,1714
9036,1790
9037,1917
9038,1857
9039,1738
9040,1757
9041,1903
9042,1901
9043,1734
9044,1728
9045,1871
9046,1895
9047,1741
9048,1718
9049,1871
9050,1937
9051,1767
9052,1712
9053,1841
9054,1936
9055,1803
9056,1731
9057,1825
9058,1926
9059,1808
9060,1729
9061,1778
9062,1913
9063,1863
9064,1710
9065,1739
9066,1893
9067,1934
9068,1805
9069,1764
9070,1877
9071,1933
9072,1797
9073,1760
9074,1874
9075,1942
9076,1826
9077,1807
9078,1859
9079,1979
9080,1867
9081,1769
9082,1793
9083,1883
9084,1776
9085,1684
9086,1729
9087,1872
9088,1823
9089,1744
9090,1776
9091,1903
9092,1879
9093,1745
9094,1744
9095,1863
9096,1871
9097,1739
9098,1750
9099,1874
9100,1914
9101,1778
9102,1726
9103,1821
9104,1901
9105,1771
9106,1712
9107,1795
9108,1909
9109,1815
9110,1709
9111,1774
9112,1894
9113,1817
9114,1675
9115,1723
9116,1887
9117,1873
9118,1753
9119,1770
9120,1905
9121,1915
9122,1743
9123,1693
9124,1822
9125,1909
9126,1779
9127,1738
9128,1885
9129,2012
9130,1910
9131,1791
9132,1863
9133,1989
9134,1908
9135,1851
9136,1943
9137,2081
9138,1954
9139,1802
9140,1800
9141,1914
9142,1872
9143,1744
9144,1756
9145,1889
9146,1905
9147,1750
9148,1713
9149,1840
9150,1894
9151,1729
9152,1682
9153,1810
9154,1903
9155,1773
9156,1714
9157,1826
9158,1978
9159,1872
9160,1739
9161,1774
9162,1874
9163,1803
9164,1742
9165,1924
9166,2314
9167,2592
9168,2697
9169,2793
9170,2851
9171,2682
9172,2373
9173,2165
9174,2088
9175,1933
9176,1648
9177,1559
9178,1742
9179,1913
9180,1823
9181,1751
9182,1851
9183,1961
9184,1851
9185,1792
9186,1872
9187,1971
9188,1865
9189,1759
9190,1806
9191,1954
9192,1907
9193,1741
9194,1746
9195,1915
9196,1966
9197,1798
9198,1755
9199,1899
9200,1968
9201,1825
9202,1762
9203,1891
9204,1997
9205,1860
9206,1783
9207,1902
9208,2015
9209,1904
9210,1793
9211,1882
9212,2027
9213,1952
9214,1807
9215,1871
9216,2042
9217,2029
9218,1899
9219,1892
9220,2030
9221,2047
9222,1891
9223,1874
9224,2047
9225,2123
9226,1983
9227,1933
9228,2066
9229,2160
9230,2019
9231,1932
9232,2059
9233,2192
9234,2100
9235,1987
9236,2067
9237,2203
9238,2112
9239,1969
9240,1984
9241,2118
9242,2061
9243,1876
9244,1853
9245,1983
9246,1961
9247,1771
9248,1712
9249,1840
9250,1884
9251,1707
9252,1614
9253,1738
9254,1840
9255,1714
9256,1634
9257,1728
9258,1829
9259,1707
9260,1593
9261,1679
9262,1814
9263,1742
9264,1584
9265,1639
9266,1814
9267,1789
9268,1626
9269,1649
9270,1806
9271,1807
9272,1680
9273,1687
9274,1799
9275,1840
9276,1693
9277,1644
9278,1757
9279,1846
9280,1739
9281,1707
9282,1819
9283,1897
9284,1748
9285,1630
9286,1725
9287,1872
9288,1783
9289,1674
9290,1711
9291,1845
9292,1776
9293,1655
9294,1703
9295,1840
9296,1839
9297,1680
9298,1673
9299,1806
9300,1872
9301,1733
9302,1698
9303,1807
9304,1856
9305,1702
9306,1627
9307,1741
9308,1855
9309,1728
9310,1648
9311,1733
9312,1855
9313,1757
9314,1673
9315,1734
9316,1862
9317,1820
9318,1664
9319,1677
9320,1826
9321,1823
9322,1689
9323,1680
9324,1809
9325,1826
9326,1694
9327,1679
9328,1801
9329,1851
9330,1680
9331,1610
9332,1744
9333,1871
9334,1802
9335,1680
9336,1745
9337,1847
9338,1761
9339,1655
9340,1730
9341,1867
9342,1807
9343,1676
9344,1712
9345,1842
9346,1843
9347,1676
9348,1655
9349,1814
9350,1851
9351,1708
9352,1678
9353,1803
9354,1874
9355,1735
9356,1678
9357,1811
9358,1913
9359,1775
9360,1678
9361,1775
9362,1888
9363,1795
9364,1671
9365,1728
9366,1861
9367,1843
9368,1680
9369,1708
9370,1858
9371,1857
9372,1747
9373,1782
9374,1939
9375,1990
9376,1839
9377,1805
9378,1931
9379,1997
9380,1853
9381,1778
9382,1927
9383,2033
9384,1873
9385,1727
9386,1798
9387,1889
9388,1825
9389,1733
9390,1791
9391,1904
9392,1816
9393,1682
9394,1719
9395,1856
9396,1835
9397,1695
9398,1703
9399,1837
9400,1873
9401,1729
9402,1707
9403,1831
9404,1872
9405,1743
9406,1692
9407,1781
9408,1825
9409,1678
9410,1679
9411,1987
9412,2414
9413,2617
9414,2735
9415,2849
9416,2850
9417,2591
9418,2282
9419,2069
9420,1950
9421,1747
9422,1520
9423,1559
9424,1818
9425,1921
9426,1818
9427,1793
9428,1922
9429,1951
9430,1771
9431,1739
9432,1872
9433,1967
9434,1831
9435,1767
9436,1861
9437,1977
9438,1872
9439,1745
9440,1807
9441,1945
9442,1885
9443,1776
9444,1827
9445,1967
9446,1933
9447,1786
9448,1802
9449,1955
9450,1987
9451,1843
9452,1826
9453,1968
9454,2017
9455,1849
9456,1805
9457,1946
9458,2030
9459,1899
9460,1842
9461,1951
9462,2067
9463,1968
9464,1887
9465,1966
9466,2107
9467,2034
9468,1903
9469,1957
9470,2129
9471,2124
9472,1986
9473,2014
9474,2166
9475,2176
9476,2025
9477,2006
9478,2162
9479,2219
9480,2064
9481,1989
9482,2127
9483,2225
9484,2084
9485,1984
9486,2042
9487,2128
9488,1984
9489,1840
9490,1886
9491,1993
9492,1898
9493,1754
9494,1791
9495,1908
9496,1845
9497,1654
9498,1647
9499,1792
9500,1798
9501,1635
9502,1616
9503,1762
9504,1814
9505,1664
9506,1622
9507,1749
9508,1822
9509,1680
9510,1584
9511,1695
9512,1818
9513,1693
9514,1611
9515,1695
9516,1831
9517,1762
9518,1626
9519,1665
9520,1812
9521,1787
9522,1638
9523,1659
9524,1815
9525,1838
9526,1692
9527,1681
9528,1835
9529,1863
9530,1697
9531,1643
9532,1783
9533,1888
9534,1752
9535,1679
9536,1757
9537,1852
9538,1745
9539,1657
9540,1744
9541,1871
9542,1804
9543,1702
9544,1770
9545,1899
9546,1840
9547,1690
9548,1712
9549,1844
9550,1832
9551,1658
9552,1649
9553,1795
9554,1873
9555,1743
9556,1702
9557,1809
9558,1863
9559,1712
9560,1648
9561,1783
9562,1906
9563,1783
9564,1669
9565,1743
9566,1861
9567,1787
9568,1681
9569,1725
9570,1841
9571,1789
9572,1626
9573,1663
9574,1838
9575,1858
9576,1707
9577,1680
9578,1828
9579,1855
9580,1679
9581,1635
9582,1779
9583,1867
9584,1733
9585,1667
9586,1776
9587,1872
9588,1753
9589,1682
9590,1750
9591,1869
9592,1794
9593,1664
9594,1728
9595,1866
9596,1827
9597,1698
9598,1739
9599,1872
9600,1831
9601,1667
9602,1659
9603,1834
9604,1894
9605,1739
9606,1700
9607,1840
9608,1904
9609,1738
9610,1651
9611,1776
9612,1879
9613,1783
9614,1685
9615,1778
9616,1895
9617,1794
9618,1729
9619,1805
9620,1927
9621,1859
9622,1702
9623,1731
9624,1881
9625,1869
9626,1727
9627,1729
9628,1876
9629,1931
9630,1818
9631,1808
9632,1945
9633,2000
9634,1843
9635,1791
9636,1923
9637,2032
9638,1905
9639,1800
9640,1883
9641,1967
9642,1840
9643,1735
9644,1802
9645,1927
9646,1862
9647,1680
9648,1697
9649,1866
9650,1865
9651,1705
9652,1711
9653,1840
9654,1853
9655,1711
9656,1673
9657,1814
9658,1877
9659,1733
9660,1669
9661,1783
9662,1882
9663,1738
9664,1630
9665,1709
9666,1854
9667,1872
9668,1985
9669,2354
9670,2796
9671,2923
9672,2725
9673,2559
9674,2585
9675,2384
9676,1958
9677,1698
9678,1691
9679,1705
9680,1600
9681,1667
9682,1882
9683,1983
9684,1840
9685,1751
9686,1842
9687,1919
9688,1808
9689,1728
9690,1825
9691,1942
9692,1841
9693,1722
9694,1776
9695,1919
9696,1860
9697,1727
9698,1781
9699,1921
9700,1898
9701,1744
9702,1739
9703,1896
9704,1921
9705,1781
9706,1760
9707,1902
9708,1943
9709,1805
9710,1752
9711,1879
9712,1994
9713,1893
9714,1819
9715,1913
9716,2032
9717,1920
9718,1801
9719,1889
9720,2045
9721,2015
9722,1891
9723,1911
9724,2059
9725,2057
9726,1919
9727,1937
9728,2098
9729,2125
9730,1968
9731,1927
9732,2097
9733,2202
9734,2082
9735,2019
9736,2142
9737,2225
9738,2073
9739,1965
9740,2063
9741,2178
9742,2070
9743,1936
9744,1963
9745,2064
9746,1971
9747,1817
9748,1827
9749,1936
9750,1856
9751,1705
9752,1706
9753,1840
9754,1863
9755,1705
9756,1643
9757,1777
9758,1827
9759,1680
9760,1620
9761,1728
9762,1814
9763,1680
9764,1584
9765,1675
9766,1806
9767,1718
9768,1601
9769,1690
9770,1823
9771,1754
9772,1618
9773,1659
9774,1825
9775,1809
9776,1661
9777,1655
9778,1811
9779,1834
9780,1673
9781,1648
9782,1799
9783,1857
9784,1727
9785,1665
9786,1789
9787,1871
9788,1733
9789,1665
9790,1766
9791,1872
9792,1751
9793,1641
9794,1714
9795,1863
9796,1791
9797,1671
9798,1737
9799,1872
9800,1823
9801,1666
9802,1682
9803,1841
9804,1877
9805,1717
9806,1674
9807,1797
9808,1847
9809,1712
9810,1657
9811,1795
9812,1881
9813,1743
9814,1682
9815,1791
9816,1884
9817,1767
9818,1647
9819,1722
9820,1856
9821,1810
9822,1702
9823,1742
9824,1855
9825,1813
9826,1657
9827,1680
9828,1840
9829,1872
9830,1703
9831,1683
9832,1841
9833,1892
9834,1739
9835,1695
9836,1810
9837,1881
9838,1734
9839,1645
9840,1771
9841,1887
9842,1770
9843,1710
9844,1799
9845,1911
9846,1808
9847,1699
9848,1747
9849,1887
9850,1840
9851,1707
9852,1731
9853,1875
9854,1867
9855,1717
9856,1705
9857,1854
9858,1900
9859,1758
9860,1713
9861,1852
9862,1979
9863,1778
9864,1713
9865,1824
9866,1920
9867,1801
9868,1705
9869,1783
9870,1927
9871,1869
9872,1744
9873,1794
9874,1935
9875,1882
9876,1717
9877,1731
9878,1893
9879,1915
9880,1772
9881,1783
9882,1927
9883,1943
9884,1789
9885,1749
9886,1883
9887,1965
9888,1813
9889,1735
9890,1862
9891,1983
9892,1877
9893,1814
9894,1926
9895,2097
9896,2007
9897,1861
9898,1888
9899,2020
9900,1988
9901,1887
9902,1935
9903,2064
9904,1992
9905,1790
9906,1763
9907,1903
9908,1959
9909,1815
9910,1751
9911,1855
9912,1917
9913,1757
9914,1694
9915,1814
9916,1936
9917,1808
9918,1713
9919,1778
9920,1916
9921,1840
9922,1723
9923,1775
9924,1913
9925,1857
9926,1680
9927,1703
9928,1825
9929,1838
9930,1803
9931,2000
9932,2448
9933,2768
9934,2789
9935,2737
9936,2707
9937,2639
9938,2339
9939,2019
9940,1878
9941,1811
9942,1658
9943,1598
9944,1780
9945,1965
9946,1900
9947,1809
9948,1856
9949,1978
9950,1915
9951,1756
9952,1775
9953,1922
9954,1923
9955,1777
9956,1791
9957,1940
9958,1975
9959,1825
9960,1771
9961,1904
9962,1984
9963,1849
9964,1783
9965,1898
9966,1989
9967,1874
9968,1791
9969,1887
9970,2031
9971,1946
9972,1821
9973,1873
9974,2005
9975,1947
9976,1838
9977,1879
9978,2032
9979,2022
9980,1872
9981,1874
9982,2025
9983,2069
9984,1933
9985,1917
9986,2047
9987,2103
9988,1955
9989,1879
9990,2005
9991,2154
9992,2058
9993,1978
9994,2076
9995,2191
9996,2089
9997,1949
9998,2018
9999,2190
10000,2157
10001,2037
10002,2086
10003,2195
10004,2149
10005,1959
10006,1925
10007,2069
10008,2087
10009,1909
10010,1840
10011,1947
10012,1984
10013,1808
10014,1744
10015,1849
10016,1909
10017,1754
10018,1649
10019,1726
10020,1835
10021,1726
10022,1616
10023,1684
10024,1821
10025,1761
10026,1611
10027,1627
10028,1791
10029,1786
10030,1635
10031,1638
10032,1783
10033,1798
10034,1649
10035,1616
10036,1762
10037,1838
10038,1703
10039,1647
10040,1774
10041,1865
10042,1722
10043,1661
10044,1757
10045,1863
10046,1766
10047,1625
10048,1701
10049,1841
10050,1776
10051,1673
10052,1711
10053,1855
10054,1811
10055,1648
10056,1649
10057,1815
10058,1846
10059,1680
10060,1655
10061,1809
10062,1872
10063,1738
10064,1680
10065,1799
10066,1879
10067,1734
10068,1658
10069,1746
10070,1878
10071,1776
10072,1681
10073,1743
10074,1855
10075,1778
10076,1665
10077,1721
10078,1862
10079,1822
10080,1664
10081,1676
10082,1840
10083,1858
10084,1700
10085,1678
10086,1824
10087,1872
10088,1724
10089,1675
10090,1803
10091,1871
10092,1743
10093,1654
10094,1767
10095,1894
10096,1794
10097,1680
10098,1746
10099,1876
10100,1795
10101,1711
10102,1769
10103,1899
10104,1862
10105,1692
10106,1695
10107,1849
10108,1873
10109,1717
10110,1686
10111,1821
10112,1872
10113,1743
10114,1690
10115,1809
10116,1895
10117,1770
10118,1701
10119,1798
10120,1907
10121,1792
10122,1703
10123,1782
10124,1905
10125,1822
10126,1680
10127,1728
10128,1872
10129,1839
10130,1680
10131,1691
10132,1862
10133,1886
10134,1742
10135,1729
10136,1873
10137,1919
10138,1759
10139,1721
10140,1855
10141,1936
10142,1791
10143,1706
10144,1808
10145,1914
10146,1808
10147,1756
10148,1850
10149,1996
10150,1921
10151,1847
10152,1934
10153,2047
10154,1973
10155,1829
10156,1856
10157,2015
10158,2056
10159,1887
10160,1813
10161,1922
10162,1937
10163,1780
10164,1746
10165,1874
10166,1936
10167,1783
10168,1712
10169,1830
10170,1936
10171,1776
10172,1661
10173,1760
10174,1909
10175,1819
10176,1695
10177,1732
10178,1882
10179,1857
10180,1719
10181,1755
10182,1885
10183,1869
10184,1731
10185,1663
10186,1854
10187,2058
10188,2175
10189,2444
10190,2806
10191,2976
10192,2697
10193,2421
10194,2416
10195,2369
10196,2041
10197,1759
10198,1697
10199,1787
10200,1729
10201,1681
10202,1792
10203,1962
10204,1938
10205,1794
10206,1791
10207,1927
10208,1904
10209,1759
10210,1759
10211,1903
10212,1958
10213,1841
10214,1819
10215,1941
10216,1998
10217,1840
10218,1763
10219,1882
10220,2004
10221,1881
10222,1792
10223,1872
10224,1987
10225,1889
10226,1774
10227,1856
10228,2007
10229,1968
10230,1805
10231,1819
10232,1981
10233,2003
10234,1873
10235,1874
10236,2010
10237,2043
10238,1906
10239,1885
10240,2032
10241,2109
10242,1974
10243,1906
10244,2032
10245,2159
10246,2043
10247,1968
10248,2055
10249,2182
10250,2101
10251,1988
10252,2047
10253,2203
10254,2145
10255,2029
10256,2064
10257,2207
10258,2199
10259,2031
10260,2014
10261,2160
10262,2171
10263,1972
10264,1887
10265,2000
10266,2066
10267,1917
10268,1820
10269,1890
10270,1958
10271,1745
10272,1735
10273,1801
10274,1903
10275,1795
10276,1676
10277,1724
10278,1847
10279,1806
10280,1662
10281,1691
10282,1842
10283,1841
10284,1680
10285,1674
10286,1815
10287,1825
10288,1681
10289,1663
10290,1810
10291,1882
10292,1730
10293,1664
10294,1776
10295,1871
10296,1743
10297,1681
10298,1767
10299,1893
10300,1803
10301,1713
10302,1782
10303,1922
10304,1857
10305,1718
10306,1751
10307,1902
10308,1866
10309,1717
10310,1717
10311,1855
10312,1873
10313,1723
10314,1687
10315,1831
10316,1891
10317,1739
10318,1681
10319,1805
10320,1895
10321,1744
10322,1649
10323,1766
10324,1903
10325,1826
10326,1710
10327,1746
10328,1877
10329,1819
10330,1686
10331,1727
10332,1884
10333,1850
10334,1696
10335,1714
10336,1859
10337,1879
10338,1726
10339,1682
10340,1811
10341,1872
10342,1727
10343,1671
10344,1798
10345,1897
10346,1761
10347,1698
10348,1786
10349,1901
10350,1778
10351,1669
10352,1744
10353,1878
10354,1824
10355,1683
10356,1731
10357,1871
10358,1868
10359,1730
10360,1741
10361,1872
10362,1883
10363,1712
10364,1674
10365,1839
10366,1929
10367,1790
10368,1713
10369,1822
10370,1904
10371,1767
10372,1691
10373,1810
10374,1941
10375,1843
10376,1729
10377,1807
10378,1942
10379,1879
10380,1770
10381,1808
10382,1927
10383,1878
10384,1726
10385,1734
10386,1898
10387,1919
10388,1774
10389,1762
10390,1902
10391,1942
10392,1795
10393,1759
10394,1888
10395,1963
10396,1805
10397,1695
10398,1806
10399,1934
10400,1840
10401,1723
10402,1799
10403,1947
10404,1897
10405,1808
10406,1880
10407,2046
10408,2029
10409,1869
10410,1866
10411,2022
10412,2060
10413,1910
10414,1902
10415,2014
10416,2019
10417,1820
10418,1737
10419,1853
10420,1951
10421,1808
10422,1712
10423,1807
10424,1939
10425,1840
10426,1718
10427,1783
10428,1906
10429,1814
10430,1703
10431,1774
10432,1925
10433,1901
10434,1739
10435,1731
10436,1883
10437,1904
10438,1735
10439,1689
10440,1809
10441,1871
10442,1818
10443,1945
10444,2385
10445,2811
10446,2887
10447,2789
10448,2714
10449,2672
10450,2375
10451,2046
10452,1856
10453,1799
10454,1677
10455,1597
10456,1712
10457,1935
10458,1953
10459,1815
10460,1819
10461,1920
10462,1933
10463,1791
10464,1792
10465,1934
10466,1968
10467,1803
10468,1741
10469,1871
10470,1973
10471,1840
10472,1780
10473,1877
10474,1986
10475,1866
10476,1751
10477,1857
10478,2015
10479,1936
10480,1800
10481,1819
10482,2002
10483,2002
10484,1889
10485,1883
10486,2013
10487,2014
10488,1887
10489,1883
10490,2032
10491,2080
10492,1936
10493,1883
10494,2018
10495,2096
10496,1955
10497,1887
10498,2003
10499,2139
10500,2037
10501,1984
10502,2069
10503,2192
10504,2112
10505,1968
10506,2042
10507,2198
10508,2165
10509,2043
10510,2065
10511,2214
10512,2205
10513,2043
10514,2031
10515,2191
10516,2222
10517,2053
10518,1973
10519,2077
10520,2135
10521,1968
10522,1842
10523,1920
10524,1996
10525,1847
10526,1738
10527,1797
10528,1927
10529,1835
10530,1718
10531,1753
10532,1873
10533,1803
10534,1648
10535,1680
10536,1843
10537,1840
10538,1657
10539,1623
10540,1782
10541,1835
10542,1684
10543,1673
10544,1808
10545,1851
10546,1678
10547,1589
10548,1728
10549,1863
10550,1767
10551,1664
10552,1733
10553,1863
10554,1762
10555,1645
10556,1734
10557,1877
10558,1819
10559,1683
10560,1718
10561,1854
10562,1853
10563,1712
10564,1703
10565,1830
10566,1840
10567,1679
10568,1635
10569,1802
10570,1885
10571,1728
10572,1648
10573,1765
10574,1879
10575,1833
10576,1660
10577,1741
10578,1847
10579,1743
10580,1615
10581,1670
10582,1833
10583,1778
10584,1648
10585,1667
10586,1808
10587,1797
10588,1647
10589,1647
10590,1783
10591,1806
10592,1658
10593,1619
10594,1761
10595,1802
10596,1639
10597,1582
10598,1712
10599,1808
10600,1684
10601,1594
10602,1682
10603,1803
10604,1708
10605,1575
10606,1595
10607,1753
10608,1712
10609,1589
10610,1628
10611,1771
10612,1744
10613,1571
10614,1568
10615,1736
10616,1755
10617,1615
10618,1584
10619,1713
10620,1757
10621,1599
10622,1535
10623,1680
10624,1778
10625,1648
10626,1557
10627,1647
10628,1754
10629,1636
10630,1514
10631,1591
10632,1746
10633,1680
10634,1515
10635,1535
10636,1705
10637,1695
10638,1519
10639,1522
10640,1692
10641,1711
10642,1571
10643,1534
10644,1664
10645,1712
10646,1557
10647,1505
10648,1648
10649,1735
10650,1600
10651,1477
10652,1570
10653,1715
10654,1639
10655,1520
10656,1583
10657,1707
10658,1638
10659,1459
10660,1488
10661,1668
10662,1744
10663,1565
10664,1613
10665,1747
10666,1759
10667,1597
10668,1534
10669,1674
10670,1755
10671,1637
10672,1631
10673,1755
10674,1814
10675,1604
10676,1435
10677,1502
10678,1622
10679,1521
10680,1419
10681,1489
10682,1619
10683,1535
10684,1414
10685,1425
10686,1559
10687,1511
10688,1357
10689,1372
10690,1535
10691,1575
10692,1395
10693,1349
10694,1482
10695,1535
10696,1397
10697,1327
10698,1434
10699,1583
10700,1344
10701,1353
10702,1680
10703,2105
10704,2265
10705,2302
10706,2352
10707,2347
10708,2154
10709,1874
10710,1680
10711,1567
10712,1342
10713,1145
10714,1210
10715,1433
10716,1509
10717,1386
10718,1360
10719,1494
10720,1535
10721,1374
10722,1331
10723,1451
10724,1531
10725,1415
10726,1325
10727,1413
10728,1520
10729,1404
10730,1291
10731,1363
10732,1500
10733,1424
10734,1315
10735,1367
10736,1521
10737,1489
10738,1326
10739,1329
10740,1487
10741,1523
10742,1386
10743,1363
10744,1498
10745,1568
10746,1408
10747,1360
10748,1502
10749,1603
10750,1474
10751,1389
10752,1487
10753,1616
10754,1520
10755,1470
10756,1535
10757,1665
10758,1586
10759,1446
10760,1494
10761,1664
10762,1661
10763,1535
10764,1563
10765,1719
10766,1735
10767,1600
10768,1584
10769,1730
10770,1786
10771,1626
10772,1573
10773,1707
10774,1812
10775,1682
10776,1595
10777,1668
10778,1745
10779,1578
10780,1428
10781,1477
10782,1606
10783,1489
10784,1346
10785,1374
10786,1493
10787,1441
10788,1285
10789,1296
10790,1447
10791,1449
10792,1264
10793,1264
10794,1431
10795,1472
10796,1316
10797,1263
10798,1392
10799,1472
10800,1325
10801,1258
10802,1395
10803,1531
10804,1424
10805,1343
10806,1426
10807,1535
10808,1437
10809,1307
10810,1378
10811,1535
10812,1513
10813,1387
10814,1344
10815,1593
10816,1585
10817,1405
10818,1401
10819,1535
10820,1600
10821,1463
10822,1437
10823,1584
10824,1647
10825,1488
10826,1417
10827,1530
10828,1659
10829,1535
10830,1415
10831,1507
10832,1662
10833,1582
10834,1451
10835,1505
10836,1659
10837,1618
10838,1495
10839,1515
10840,1654
10841,1629
10842,1470
10843,1486
10844,1643
10845,1690
10846,1531
10847,1482
10848,1631
10849,1730
10850,1588
10851,1505
10852,1616
10853,1713
10854,1603
10855,1456
10856,1626
10857,1744
10858,1649
10859,1510
10860,1589
10861,1747
10862,1709
10863,1535
10864,1582
10865,1745
10866,1760
10867,1633
10868,1626
10869,1751
10870,1789
10871,1630
10872,1605
10873,1747
10874,1811
10875,1651
10876,1605
10877,1729
10878,1842
10879,1724
10880,1645
10881,1754
10882,1866
10883,1758
10884,1662
10885,1735
10886,1871
10887,1795
10888,1647
10889,1692
10890,1877
10891,1872
10892,1728
10893,1733
10894,1874
10895,1905
10896,1733
10897,1699
10898,1862
10899,1953
10900,1823
10901,1777
10902,1889
10903,1988
10904,1867
10905,1769
10906,1867
10907,1999
10908,1895
10909,1775
10910,1851
10911,2005
10912,1951
10913,1845
10914,1886
10915,2030
10916,1985
10917,1847
10918,1875
10919,2041
10920,2074
10921,1915
10922,1923
10923,2083
10924,2160
10925,2009
10926,1931
10927,2064
10928,2172
10929,2059
10930,1989
10931,2109
10932,2239
10933,2104
10934,1955
10935,1982
10936,2101
10937,2023
10938,1915
10939,1975
10940,2122
10941,2109
10942,1981
10943,1973
10944,2098
10945,2096
10946,1925
10947,1910
10948,2059
10949,2110
10950,1949
10951,1916
10952,2042
10953,2154
10954,2017
10955,1911
10956,2003
10957,2107
10958,1975
10959,1947
10960,2192
10961,2559
10962,2816
10963,2907
10964,3056
10965,3152
10966,2944
10967,2651
10968,2460
10969,2352
10970,2109
10971,1822
10972,1829
10973,2073
10974,2221
10975,2090
10976,2061
10977,2193
10978,2277
10979,2142
10980,2043
10981,2141
10982,2247
10983,2145
10984,2054
10985,2128
10986,2263
10987,2207
10988,2059
10989,2102
10990,2270
10991,2271
10992,2117
10993,2128
10994,2263
10995,2271
10996,2131
10997,2131
10998,2288
10999,2337
11000,2176
11001,2114
11002,2244
11003,2339
11004,2225
11005,2175
11006,2272
11007,2379
11008,2273
11009,2175
11010,2268
11011,2412
11012,2340
11013,2194
11014,2261
11015,2427
11016,2405
11017,2255
11018,2270
11019,2435
11020,2477
11021,2330
11022,2320
11023,2480
11024,2545
11025,2397
11026,2359
11027,2489
11028,2581
11029,2433
11030,2331
11031,2419
11032,2547
11033,2445
11034,2373
11035,2430
11036,2509
11037,2385
11038,2218
11039,2226
11040,2349
11041,2295
11042,2131
11043,2128
11044,2246
11045,2239
11046,2064
11047,2032
11048,2163
11049,2206
11050,2059
11051,1989
11052,2129
11053,2222
11054,2066
11055,1990
11056,2093
11057,2190
11058,2063
11059,1969
11060,2054
11061,2181
11062,2115
11063,1983
11064,2045
11065,2183
11066,2141
11067,2000
11068,2019
11069,2178
11070,2182
11071,2003
11072,1995
11073,2153
11074,2206
11075,2057
11076,2007
11077,2146
11078,2221
11079,2089
11080,2032
11081,2149
11082,2250
11083,2121
11084,2032
11085,2121
11086,2240
11087,2144
11088,2001
11089,2060
11090,2206
11091,2169
11092,2013
11093,2047
11094,2187
11095,2175
11096,2018
11097,2012
11098,2160
11099,2197
11100,2054
11101,2000
11102,2128
11103,2185
11104,2030
11105,1952
11106,2081
11107,2193
11108,2075
11109,1985
11110,2074
11111,2189
11112,2086
11113,1949
11114,2019
11115,2163
11116,2110
11117,1974
11118,2011
11119,2172
11120,2160
11121,2000
11122,2000
11123,2143
11124,2192
11125,2030
11126,1979
11127,2108
11128,2169
11129,2041
11130,2002
11131,2126
11132,2198
11133,2039
11134,1940
11135,2047
11136,2192
11137,2096
11138,1955
11139,2018
11140,2175
11141,2121
11142,1967
11143,2001
11144,2163
11145,2160
11146,2000
11147,2001
11148,2138
11149,2163
11150,2000
11151,1978
11152,2114
11153,2178
11154,2027
11155,1936
11156,2054
11157,2160
11158,2009
11159,1918
11160,2013
11161,2150
11162,2042
11163,1939
11164,2017
11165,2160
11166,2111
11167,1968
11168,2006
11169,2160
11170,2122
11171,1965
11172,1987
11173,2157
11174,2211
11175,2047
11176,2007
11177,2159
11178,2234
11179,2109
11180,2037
11181,2140
11182,2224
11183,2110
11184,2032
11185,2160
11186,2267
11187,2123
11188,1983
11189,2033
11190,2153
11191,2093
11192,1947
11193,1956
11194,2098
11195,2094
11196,1918
11197,1895
11198,2043
11199,2045
11200,1877
11201,1838
11202,1982
11203,2065
11204,1936
11205,1872
11206,1987
11207,2099
11208,1968
11209,1861
11210,1931
11211,2013
11212,1904
11213,1861
11214,2128
11215,2559
11216,2817
11217,2842
11218,2897
11219,2934
11220,2758
11221,2459
11222,2240
11223,2126
11224,1953
11225,1727
11226,1744
11227,1953
11228,2045
11229,1929
11230,1866
11231,1988
11232,2092
11233,1951
11234,1871
11235,1968
11236,2089
11237,1965
11238,1815
11239,1875
11240,2034
11241,1934
11242,1855
11243,1893
11244,2043
11245,2020
11246,1853
11247,1851
11248,2021
11249,2055
11250,1872
11251,1835
11252,1986
11253,2064
11254,1895
11255,1799
11256,1946
11257,2082
11258,1962
11259,1904
11260,1979
11261,2117
11262,2005
11263,1815
11264,1963
11265,2125
11266,2058
11267,1906
11268,1957
11269,2137
11270,2129
11271,1945
11272,1936
11273,2117
11274,2173
11275,2015
11276,1981
11277,2141
11278,2215
11279,2075
11280,2027
11281,2157
11282,2258
11283,2126
11284,2018
11285,2119
11286,2245
11287,2126
11288,1969
11289,2026
11290,2158
11291,2059
11292,1863
11293,1856
11294,1984
11295,1952
11296,1763
11297,1734
11298,1872
11299,1891
11300,1712
11301,1666
11302,1795
11303,1852
11304,1693
11305,1621
11306,1761
11307,1851
11308,1682
11309,1579
11310,1690
11311,1830
11312,1731
11313,1610
11314,1691
11315,1831
11316,1746
11317,1621
11318,1669
11319,1786
11320,1762
11321,1629
11322,1661
11323,1808
11324,1830
11325,1682
11326,1648
11327,1803
11328,1871
11329,1712
11330,1662
11331,1786
11332,1857
11333,1717
11334,1648
11335,1771
11336,1878
11337,1755
11338,1643
11339,1717
11340,1842
11341,1775
11342,1648
11343,1675
11344,1826
11345,1805
11346,1658
11347,1669
11348,1807
11349,1808
11350,1645
11351,1660
11352,1797
11353,1840
11354,1676
11355,1616
11356,1757
11357,1831
11358,1702
11359,1629
11360,1742
11361,1851
11362,1727
11363,1607
11364,1692
11365,1822
11366,1735
11367,1598
11368,1659
11369,1829
11370,1794
11371,1633
11372,1649
11373,1801
11374,1792
11375,1664
11376,1670
11377,1808
11378,1825
11379,1660
11380,1614
11381,1749
11382,1834
11383,1714
11384,1654
11385,1747
11386,1854
11387,1727
11388,1611
11389,1722
11390,1858
11391,1773
11392,1643
11393,1702
11394,1854
11395,1802
11396,1648
11397,1677
11398,1861
11399,1828
11400,1659
11401,1659
11402,1811
11403,1845
11404,1687
11405,1641
11406,1781
11407,1872
11408,1744
11409,1678
11410,1801
11411,1893
11412,1769
11413,1679
11414,1761
11415,1882
11416,1795
11417,1665
11418,1729
11419,1873
11420,1809
11421,1669
11422,1719
11423,1870
11424,1859
11425,1717
11426,1721
11427,1862
11428,1885
11429,1737
11430,1712
11431,1882
11432,1970
11433,1844
11434,1791
11435,1903
11436,2000
11437,1887
11438,1790
11439,1907
11440,2064
11441,1953
11442,1778
11443,1793
11444,1904
11445,1837
11446,1686
11447,1742
11448,1895
11449,1873
11450,1728
11451,1729
11452,1847
11453,1872
11454,1712
11455,1669
11456,1803
11457,1867
11458,1725
11459,1661
11460,1748
11461,1873
11462,1738
11463,1636
11464,1729
11465,1862
11466,1749
11467,1586
11468,1712
11469,2018
11470,2231
11471,2429
11472,2704
11473,2956
11474,2823
11475,2477
11476,2346
11477,2299
11478,2069
11479,1674
11480,1519
11481,1687
11482,1827
11483,1749
11484,1730
11485,1863
11486,1958
11487,1819
11488,1700
11489,1781
11490,1919
11491,1821
11492,1710
11493,1779
11494,1920
11495,1863
11496,1730
11497,1776
11498,1917
11499,1898
11500,1735
11501,1719
11502,1875
11503,1923
11504,1786
11505,1767
11506,1917
11507,1963
11508,1808
11509,1744
11510,1872
11511,1979
11512,1882
11513,1813
11514,1916
11515,2026
11516,1929
11517,1839
11518,1929
11519,2066
11520,1990
11521,1869
11522,1927
11523,2046
11524,2058
11525,1925
11526,1963
11527,2105
11528,2113
11529,1963
11530,1948
11531,2112
11532,2186
11533,2060
11534,2003
11535,2127
11536,2221
11537,2096
11538,1999
11539,2122
11540,2255
11541,2148
11542,2018
11543,2064
11544,2163
11545,2064
11546,1895
11547,1909
11548,2015
11549,1961
11550,1801
11551,1793
11552,1919
11553,1895
11554,1709
11555,1643
11556,1775
11557,1830
11558,1676
11559,1606
11560,1743
11561,1837
11562,1712
11563,1645
11564,1738
11565,1840
11566,1708
11567,1581
11568,1663
11569,1815
11570,1754
11571,1616
11572,1646
11573,1801
11574,1783
11575,1662
11576,1679
11577,1814
11578,1829
11579,1659
11580,1631
11581,1792
11582,1842
11583,1695
11584,1645
11585,1777
11586,1871
11587,1744
11588,1664
11589,1776
11590,1892
11591,1767
11592,1662
11593,1744
11594,1873
11595,1799
11596,1661
11597,1699
11598,1840
11599,1819
11600,1674
11601,1685
11602,1840
11603,1854
11604,1721
11605,1703
11606,1838
11607,1863
11608,1714
11609,1658
11610,1798
11611,1873
11612,1733
11613,1651
11614,1766
11615,1878
11616,1760
11617,1644
11618,1722
11619,1871
11620,1798
11621,1667
11622,1713
11623,1866
11624,1820
11625,1683
11626,1711
11627,1875
11628,1881
11629,1715
11630,1683
11631,1833
11632,1871
11633,1731
11634,1690
11635,1818
11636,1875
11637,1744
11638,1675
11639,1787
11640,1882
11641,1775
11642,1721
11643,1805
11644,1904
11645,1791
11646,1684
11647,1725
11648,1872
11649,1835
11650,1687
11651,1701
11652,1872
11653,1878
11654,1712
11655,1684
11656,1838
11657,1873
11658,1723
11659,1678
11660,1823
11661,1921
11662,1791
11663,1714
11664,1817
11665,1921
11666,1802
11667,1711
11668,1798
11669,1922
11670,1834
11671,1701
11672,1767
11673,1911
11674,1872
11675,1747
11676,1786
11677,1926
11678,1905
11679,1744
11680,1741
11681,1889
11682,1918
11683,1771
11684,1719
11685,1851
11686,1930
11687,1791
11688,1728
11689,1859
11690,1987
11691,1878
11692,1806
11693,1926
11694,2060
11695,1947
11696,1845
11697,1920
11698,2045
11699,2000
11700,1870
11701,1872
11702,1969
11703,1918
11704,1735
11705,1745
11706,1911
11707,1948
11708,1792
11709,1745
11710,1873
11711,1935
11712,1776
11713,1696
11714,1823
11715,1917
11716,1799
11717,1709
11718,1806
11719,1923
11720,1829
11721,1719
11722,1773
11723,1895
11724,1820
11725,1687
11726,1719
11727,1890
11728,1975
11729,2037
11730,2348
11731,2783
11732,2991
11733,2793
11734,2558
11735,2558
11736,2467
11737,2076
11738,1746
11739,1708
11740,1763
11741,1691
11742,1700
11743,1861
11744,1986
11745,1904
11746,1776
11747,1837
11748,1961
11749,1904
11750,1735
11751,1779
11752,1935
11753,1909
11754,1776
11755,1794
11756,1945
11757,1967
11758,1814
11759,1778
11760,1931
11761,1998
11762,1847
11763,1788
11764,1908
11765,2007
11766,1889
11767,1792
11768,1898
11769,2033
11770,1938
11771,1872
11772,1923
11773,2037
11774,1981
11775,1866
11776,1926
11777,2077
11778,2042
11779,1901
11780,1893
11781,2058
11782,2079
11783,1922
11784,1904
11785,2055
11786,2127
11787,1978
11788,1935
11789,2081
11790,2190
11791,2045
11792,1977
11793,2096
11794,2208
11795,2128
11796,2010
11797,2099
11798,2254
11799,2179
11800,2032
11801,2067
11802,2183
11803,2143
11804,1985
11805,1955
11806,2080
11807,2067
11808,1866
11809,1785
11810,1887
11811,1924
11812,1749
11813,1679
11814,1802
11815,1895
11816,1760
11817,1675
11818,1761
11819,1852
11820,1742
11821,1618
11822,1694
11823,1823
11824,1750
11825,1619
11826,1669
11827,1808
11828,1776
11829,1633
11830,1659
11831,1861
11832,1826
11833,1662
11834,1619
11835,1763
11836,1819
11837,1682
11838,1645
11839,1776
11840,1859
11841,1724
11842,1651
11843,1763
11844,1865
11845,1751
11846,1683
11847,1775
11848,1904
11849,1822
11850,1681
11851,1715
11852,1837
11853,1797
11854,1661
11855,1685
11856,1856
11857,1869
11858,1706
11859,1667
11860,1819
11861,1858
11862,1699
11863,1650
11864,1797
11865,1882
11866,1747
11867,1678
11868,1783
11869,1883
11870,1763
11871,1653
11872,1734
11873,1872
11874,1787
11875,1671
11876,1725
11877,1876
11878,1822
11879,1668
11880,1698
11881,1853
11882,1861
11883,1712
11884,1686
11885,1822
11886,1867
11887,1718
11888,1683
11889,1823
11890,1904
11891,1757
11892,1703
11893,1808
11894,1901
11895,1777
11896,1655
11897,1732
11898,1867
11899,1806
11900,1694
11901,1750
11902,1894
11903,1849
11904,1679
11905,1705
11906,1867
11907,1875
11908,1739
11909,1722
11910,1843
11911,1909
11912,1770
11913,1714
11914,1834
11915,1881
11916,1751
