Sample_Index,ADC_Value
0,1659
1,1856
2,1559
3,1327
4,1584
5,1846
6,1599
7,1330
8,1535
9,1840
10,1650
11,1352
12,1484
13,1849
14,1753
15,1419
16,1451
17,1831
18,1831
19,1477
20,1407
21,1775
22,1872
23,1535
24,1391
25,1726
26,1921
27,1535
28,1414
29,1680
30,1924
31,1666
32,1401
33,1600
34,1911
35,1737
36,1429
37,1535
38,1936
39,1846
40,1488
41,1519
42,1904
43,1899
44,1535
45,1479
46,1846
47,1926
48,1607
49,1468
50,1801
51,1976
52,1675
53,1459
54,1723
55,1978
56,1808
57,1472
58,1696
59,1997
60,1806
61,1499
62,1637
63,2015
64,1915
65,1572
66,1597
67,1975
68,1955
69,1616
70,1570
71,1955
72,2065
73,1763
74,1639
75,1985
76,2175
77,1855
78,1638
79,1902
80,2183
81,1957
82,1713
83,1871
84,2128
85,1901
86,1600
87,1725
88,2091
89,1994
90,1641
91,1649
92,2015
93,2000
94,1631
95,1535
96,1913
97,1988
98,1672
99,1535
100,1856
101,2016
102,1729
103,1535
104,1811
105,2093
106,1823
107,1534
108,1699
109,2000
110,1840
111,1647
112,1988
113,2761
114,3325
115,3657
116,4095
117,4095
118,4095
119,3287
120,2592
121,2383
122,2096
123,1611
124,1486
125,1878
126,2097
127,1838
128,1643
129,1894
130,2157
131,1881
132,1597
133,1780
134,2113
135,1936
136,1626
137,1729
138,2087
139,1975
140,1643
141,1680
142,2064
143,2066
144,1717
145,1676
146,2046
147,2120
148,1769
149,1647
150,1987
151,2165
152,1878
153,1705
154,1977
155,2234
156,1969
157,1719
158,1916
159,2227
160,2060
161,1792
162,1939
163,2317
164,2224
165,1886
166,1929
167,2311
168,2330
169,1998
170,1987
171,2384
172,2496
173,2181
174,2074
175,2421
176,2626
177,2354
178,2191
179,2497
180,2775
181,2538
182,2288
183,2492
184,2833
185,2640
186,2315
187,2398
188,2704
189,2525
190,2115
191,2059
192,2338
193,2235
194,1819
195,1704
196,2011
197,2033
198,1638
199,1445
200,1734
201,1889
202,1569
203,1328
204,1575
205,1829
206,1579
207,1310
208,1503
209,1903
210,1611
211,1309
212,1434
213,1801
214,1709
215,1369
216,1395
217,1759
218,1744
219,1414
220,1366
221,1744
222,1829
223,1506
224,1378
225,1708
226,1872
227,1556
228,1345
229,1635
230,1925
231,1670
232,1398
233,1611
234,1930
235,1729
236,1426
237,1592
238,1904
239,1791
240,1463
241,1514
242,1897
243,1886
244,1533
245,1481
246,1852
247,1927
248,1587
249,1456
250,1774
251,1931
252,1648
253,1463
254,1735
255,1975
256,1728
257,1479
258,1687
259,1964
260,1770
261,1466
262,1602
263,1970
264,1859
265,1519
266,1559
267,1934
268,1903
269,1558
270,1515
271,1879
272,1959
273,1620
274,1492
275,1833
276,1971
277,1678
278,1508
279,1801
280,2039
281,1765
282,1495
283,1708
284,2027
285,1844
286,1535
287,1663
288,2000
289,1887
290,1559
291,1601
292,1974
293,1966
294,1620
295,1584
296,1951
297,2001
298,1669
299,1535
300,1883
301,2047
302,1744
303,1535
304,1809
305,2089
306,1823
307,1567
308,1760
309,2078
310,1875
311,1584
312,1727
313,2096
314,1962
315,1635
316,1664
317,2021
318,1975
319,1643
320,1603
321,1991
322,2091
323,1748
324,1614
325,1925
326,2112
327,1793
328,1591
329,1898
330,2143
331,1888
332,1613
333,1814
334,2141
335,1959
336,1680
337,1805
338,2096
339,1962
340,1642
341,1701
342,2098
343,2072
344,1726
345,1674
346,2043
347,2130
348,1808
349,1710
350,2075
351,2262
352,1961
353,1754
354,2007
355,2260
356,2000
357,1769
358,1984
359,2291
360,2068
361,1733
362,1840
363,2188
364,2083
365,1743
366,1753
367,2114
368,2080
369,1735
370,1675
371,2005
372,2062
373,1714
374,1604
375,1958
376,2114
377,1808
378,1623
379,1897
380,2143
381,1866
382,1607
383,1806
384,2112
385,1902
386,1586
387,1735
388,2235
389,2416
390,2551
391,3255
392,4095
393,4095
394,4095
395,3936
396,3702
397,2895
398,1971
399,1535
400,1843
401,2096
402,1853
403,1689
404,1978
405,2227
406,1925
407,1634
408,1823
409,2128
410,1925
411,1637
412,1774
413,2113
414,1982
415,1674
416,1719
417,2103
418,2066
419,1732
420,1693
421,2065
422,2154
423,1828
424,1701
425,2015
426,2192
427,1894
428,1702
429,1970
430,2222
431,1971
432,1739
433,1954
434,2271
435,2079
436,1789
437,1920
438,2267
439,2150
440,1849
441,1929
442,2332
443,2320
444,1990
445,1956
446,2338
447,2423
448,2115
449,2031
450,2399
451,2617
452,2322
453,2141
454,2435
455,2738
456,2494
457,2255
458,2468
459,2821
460,2641
461,2363
462,2483
463,2816
464,2637
465,2243
466,2223
467,2522
468,2414
469,1972
470,1825
471,2116
472,2128
473,1712
474,1527
475,1807
476,1936
477,1587
478,1360
479,1622
480,1840
481,1535
482,1279
483,1499
484,1804
485,1584
486,1264
487,1409
488,1787
489,1675
490,1328
491,1365
492,1740
493,1719
494,1387
495,1345
496,1691
497,1744
498,1421
499,1325
500,1673
501,1830
502,1520
503,1339
504,1635
505,1862
506,1584
507,1330
508,1566
509,1891
510,1694
511,1387
512,1530
513,1890
514,1760
515,1424
516,1479
517,1862
518,1831
519,1478
520,1451
521,1830
522,1884
523,1557
524,1430
525,1778
526,1936
527,1610
528,1408
529,1692
530,1936
531,1664
532,1410
533,1646
534,1951
535,1743
536,1425
537,1565
538,1924
539,1801
540,1469
541,1520
542,1881
543,1819
544,1493
545,1482
546,1870
547,1939
548,1600
549,1484
550,1799
551,1962
552,1643
553,1433
554,1718
555,1970
556,1711
557,1456
558,1669
559,1957
560,1761
561,1483
562,1630
563,1979
564,1858
565,1511
566,1535
567,1938
568,1922
569,1579
570,1525
571,1903
572,1953
573,1614
574,1474
575,1825
576,1973
577,1665
578,1472
579,1781
580,2066
581,1795
582,1520
583,1715
584,2022
585,1810
586,1516
587,1665
588,2019
589,1894
590,1573
591,1615
592,1979
593,1920
594,1588
595,1568
596,1953
597,2031
598,1680
599,1535
600,1878
601,2032
602,1721
603,1532
604,1825
605,2082
606,1810
607,1555
608,1773
609,2069
610,1845
611,1535
612,1699
613,2039
614,1907
615,1596
616,1654
617,2038
618,2000
619,1648
620,1607
621,1994
622,2067
623,1712
624,1599
625,1930
626,2091
627,1765
628,1581
629,1872
630,2119
631,1871
632,1661
633,1903
634,2203
635,1975
636,1677
637,1843
638,2226
639,2111
640,1789
641,1819
642,2134
643,2018
644,1669
645,1648
646,2030
647,2108
648,1763
649,1627
650,1937
651,2079
652,1746
653,1533
654,1814
655,2061
656,1776
657,1534
658,1773
659,2083
660,1861
661,1569
662,1710
663,2047
664,1890
665,1565
666,1626
667,1974
668,1897
669,1601
670,1754
671,2459
672,3045
673,3328
674,3864
675,4095
676,4095
677,3693
678,2853
679,2532
680,2261
681,1726
682,1450
683,1744
684,2112
685,1913
686,1630
687,1765
688,2098
689,1936
690,1611
691,1669
692,2028
693,1953
694,1632
695,1619
696,1973
697,1990
698,1670
699,1594
700,1954
701,2065
702,1762
703,1600
704,1881
705,2103
706,1835
707,1616
708,1859
709,2171
710,1951
711,1667
712,1808
713,2159
714,2038
715,1730
716,1799
717,2189
718,2146
719,1808
720,1790
721,2150
722,2221
723,1903
724,1823
725,2188
726,2335
727,2032
728,1895
729,2219
730,2448
731,2191
732,1972
733,2255
734,2606
735,2394
736,2124
737,2304
738,2704
739,2559
740,2255
741,2337
742,2735
743,2667
744,2313
745,2288
746,2653
747,2619
748,2198
749,2025
750,2269
751,2287
752,1904
753,1686
754,1921
755,2054
756,1699
757,1425
758,1642
759,1872
760,1611
761,1299
762,1456
763,1782
764,1631
765,1300
766,1369
767,1723
768,1645
769,1306
770,1296
771,1671
772,1691
773,1358
774,1273
775,1633
776,1777
777,1457
778,1282
779,1585
780,1807
781,1507
782,1281
783,1529
784,1839
785,1602
786,1318
787,1483
788,1831
789,1675
790,1351
791,1447
792,1835
793,1776
794,1424
795,1413
796,1793
797,1841
798,1490
799,1391
800,1763
801,1905
802,1569
803,1379
804,1688
805,1907
806,1627
807,1380
808,1632
809,1936
810,1718
811,1415
812,1569
813,1871
814,1711
815,1421
816,1526
817,1885
818,1805
819,1463
820,1467
821,1853
822,1873
823,1527
824,1436
825,1777
826,1907
827,1587
828,1419
829,1730
830,1942
831,1659
832,1424
833,1678
834,1981
835,1755
836,1452
837,1611
838,1957
839,1798
840,1472
841,1564
842,1947
843,1895
844,1535
845,1521
846,1898
847,1926
848,1591
849,1495
850,1835
851,1954
852,1648
853,1488
854,1799
855,1991
856,1708
857,1475
858,1738
859,2015
860,1782
861,1499
862,1675
863,1994
864,1840
865,1535
866,1638
867,2005
868,1919
869,1575
870,1578
871,1946
872,1936
873,1637
874,1569
875,1914
876,1987
877,1661
878,1513
879,1834
880,2015
881,1728
882,1522
883,1791
884,2079
885,1829
886,1535
887,1726
888,2070
889,1892
890,1581
891,1669
892,2064
893,1971
894,1613
895,1606
896,1995
897,1994
898,1660
899,1587
900,1952
901,2064
902,1742
903,1585
904,1893
905,2065
906,1791
907,1613
908,1905
909,2190
910,1938
911,1655
912,1840
913,2170
914,2014
915,1744
916,1856
917,2206
918,2069
919,1699
920,1680
921,2064
922,2087
923,1743
924,1633
925,1963
926,2064
927,1728
928,1554
929,1864
930,2075
931,1773
932,1535
933,1794
934,2087
935,1830
936,1535
937,1723
938,2064
939,1886
940,1574
941,1675
942,2012
943,1893
944,1527
945,1571
946,2079
947,2339
948,2471
949,2999
950,4095
951,4095
952,4095
953,3543
954,3280
955,2809
956,2023
957,1535
958,1727
959,2041
960,1838
961,1579
962,1755
963,2112
964,1942
965,1575
966,1681
967,2057
968,1959
969,1617
970,1619
971,1988
972,2010
973,1681
974,1616
975,1968
976,2081
977,1747
978,1590
979,1903
980,2121
981,1835
982,1619
983,1883
984,2160
985,1917
986,1652
987,1851
988,2187
989,1999
990,1687
991,1808
992,2194
993,2110
994,1776
995,1799
996,2183
997,2192
998,1885
999,1839
1000,2217
1001,2300
1002,1977
1003,1845
1004,2198
1005,2432
1006,2156
1007,1959
1008,2256
1009,2588
1010,2343
1011,2074
1012,2286
1013,2673
1014,2538
1015,2229
1016,2335
1017,2733
1018,2647
1019,2296
1020,2301
1021,2659
1022,2650
1023,2249
1024,2108
1025,2397
1026,2435
1027,2012
1028,1771
1029,2001
1030,2116
1031,1746
1032,1475
1033,1696
1034,1922
1035,1631
1036,1332
1037,1510
1038,1840
1039,1636
1040,1302
1041,1395
1042,1759
1043,1661
1044,1328
1045,1344
1046,1733
1047,1698
1048,1344
1049,1286
1050,1675
1051,1760
1052,1421
1053,1266
1054,1611
1055,1783
1056,1471
1057,1280
1058,1573
1059,1858
1060,1616
1061,1341
1062,1521
1063,1859
1064,1681
1065,1367
1066,1472
1067,1851
1068,1744
1069,1392
1070,1419
1071,1815
1072,1814
1073,1466
1074,1403
1075,1777
1076,1869
1077,1518
1078,1365
1079,1701
1080,1888
1081,1582
1082,1362
1083,1643
1084,1904
1085,1651
1086,1386
1087,1593
1088,1931
1089,1737
1090,1413
1091,1515
1092,1885
1093,1789
1094,1447
1095,1470
1096,1840
1097,1820
1098,1472
1099,1413
1100,1792
1101,1867
1102,1530
1103,1400
1104,1728
1105,1877
1106,1579
1107,1392
1108,1686
1109,1903
1110,1634
1111,1392
1112,1618
1113,1915
1114,1711
1115,1424
1116,1566
1117,1904
1118,1785
1119,1460
1120,1502
1121,1904
1122,1872
1123,1526
1124,1474
1125,1853
1126,1925
1127,1599
1128,1470
1129,1829
1130,1984
1131,1664
1132,1447
1133,1730
1134,2014
1135,1770
1136,1488
1137,1678
1138,2013
1139,1827
1140,1513
1141,1623
1142,1988
1143,1898
1144,1535
1145,1584
1146,1963
1147,1968
1148,1617
1149,1535
1150,1906
1151,1999
1152,1648
1153,1517
1154,1849
1155,2010
1156,1686
1157,1490
1158,1779
1159,2047
1160,1794
1161,1520
1162,1717
1163,2031
1164,1860
1165,1563
1166,1666
1167,2023
1168,1923
1169,1597
1170,1630
1171,2018
1172,2016
1173,1663
1174,1597
1175,1951
1176,2007
1177,1680
1178,1574
1179,1909
1180,2042
1181,1749
1182,1578
1183,1899
1184,2167
1185,1936
1186,1687
1187,1899
1188,2189
1189,1971
1190,1688
1191,1846
1192,2243
1193,2134
1194,1779
1195,1776
1196,2118
1197,2079
1198,1712
1199,1651
1200,2022
1201,2089
1202,1716
1203,1502
1204,1904
1205,2081
1206,1749
1207,1533
1208,1806
1209,2046
1210,1776
1211,1507
1212,1734
1213,2071
1214,1873
1215,1535
1216,1669
1217,2032
1218,1922
1219,1562
1220,1567
1221,1920
1222,1968
1223,1805
1224,2111
1225,2992
1226,3967
1227,4095
1228,4027
1229,4095
1230,3904
1231,2800
1232,2085
1233,1927
1234,1943
1235,1670
1236,1490
1237,1783
1238,2127
1239,1921
1240,1600
1241,1706
1242,2059
1243,1936
1244,1591
1245,1615
1246,1984
1247,1972
1248,1622
1249,1585
1250,1968
1251,2045
1252,1711
1253,1584
1254,1927
1255,2071
1256,1761
1257,1584
1258,1875
1259,2102
1260,1835
1261,1602
1262,1840
1263,2177
1264,1969
1265,1664
1266,1801
1267,2170
1268,2041
1269,1717
1270,1776
1271,2161
1272,2135
1273,1802
1274,1779
1275,2159
1276,2227
1277,1911
1278,1827
1279,2193
1280,2373
1281,2088
1282,1921
1283,2240
1284,2490
1285,2239
1286,2019
1287,2277
1288,2623
1289,2447
1290,2168
1291,2333
1292,2731
1293,2640
1294,2315
1295,2367
1296,2753
1297,2706
1298,2319
1299,2225
1300,2533
1301,2546
1302,2123
1303,1911
1304,2163
1305,2242
1306,1830
1307,1557
1308,1791
1309,1981
1310,1648
1311,1360
1312,1535
1313,1813
1314,1579
1315,1264
1316,1410
1317,1765
1318,1631
1319,1278
1320,1331
1321,1731
1322,1701
1323,1328
1324,1280
1325,1649
1326,1709
1327,1348
1328,1236
1329,1599
1330,1762
1331,1441
1332,1275
1333,1535
1334,1776
1335,1507
1336,1264
1337,1504
1338,1821
1339,1599
1340,1293
1341,1450
1342,1808
1343,1666
1344,1328
1345,1407
1346,1802
1347,1745
1348,1400
1349,1375
1350,1763
1351,1806
1352,1456
1353,1345
1354,1721
1355,1856
1356,1535
1357,1363
1358,1664
1359,1893
1360,1613
1361,1357
1362,1589
1363,1910
1364,1703
1365,1392
1366,1533
1367,1885
1368,1750
1369,1408
1370,1453
1371,1843
1372,1813
1373,1470
1374,1441
1375,1798
1376,1840
1377,1488
1378,1390
1379,1727
1380,1877
1381,1566
1382,1383
1383,1707
1384,1921
1385,1642
1386,1383
1387,1629
1388,1927
1389,1719
1390,1414
1391,1567
1392,1915
1393,1774
1394,1442
1395,1535
1396,1919
1397,1880
1398,1506
1399,1456
1400,1837
1401,1907
1402,1575
1403,1456
1404,1802
1405,1942
1406,1610
1407,1443
1408,1763
1409,1995
1410,1702
1411,1446
1412,1697
1413,1997
1414,1787
1415,1490
1416,1647
1417,1977
1418,1825
1419,1503
1420,1601
1421,1984
1422,1906
1423,1579
1424,1567
1425,1936
1426,1994
1427,1646
1428,1535
1429,1903
1430,2032
1431,1697
1432,1510
1433,1807
1434,2027
1435,1739
1436,1498
1437,1755
1438,2073
1439,1835
1440,1535
1441,1707
1442,2057
1443,1897
1444,1582
1445,1664
1446,2013
1447,1931
1448,1614
1449,1614
1450,2000
1451,2032
1452,1687
1453,1589
1454,1937
1455,2083
1456,1757
1457,1578
1458,1883
1459,2112
1460,1815
1461,1578
1462,1823
1463,2128
1464,1883
1465,1585
1466,1770
1467,2162
1468,2030
1469,1717
1470,1817
1471,2176
1472,2093
1473,1740
1474,1740
1475,2150
1476,2203
1477,1853
1478,1733
1479,2039
1480,2145
1481,1803
1482,1636
1483,1939
1484,2144
1485,1812
1486,1565
1487,1796
1488,2096
1489,1853
1490,1529
1491,1732
1492,2095
1493,1927
1494,1588
1495,1664
1496,2034
1497,1966
1498,1623
1499,1619
1500,1985
1501,1974
1502,1646
1503,1535
1504,1909
1505,2023
1506,1731
1507,1747
1508,2413
1509,3235
1510,3649
1511,3947
1512,4095
1513,4095
1514,3614
1515,2702
1516,2325
1517,2229
1518,1866
1519,1526
1520,1680
1521,2117
1522,2065
1523,1712
1524,1686
1525,2045
1526,2055
1527,1687
1528,1597
1529,1951
1530,2079
1531,1743
1532,1573
1533,1887
1534,2079
1535,1789
1536,1587
1537,1860
1538,2152
1539,1907
1540,1614
1541,1791
1542,2167
1543,1998
1544,1674
1545,1759
1546,2139
1547,2058
1548,1732
1549,1758
1550,2134
1551,2123
1552,1798
1553,1750
1554,2143
1555,2274
1556,1938
1557,1779
1558,2105
1559,2314
1560,2029
1561,1834
1562,2113
1563,2411
1564,2171
1565,1907
1566,2128
1567,2490
1568,2343
1569,2054
1570,2182
1571,2595
1572,2530
1573,2221
1574,2244
1575,2672
1576,2719
1577,2382
1578,2308
1579,2672
1580,2799
1581,2423
1582,2237
1583,2502
1584,2653
1585,2286
1586,1983
1587,2173
1588,2355
1589,2016
1590,1661
1591,1771
1592,2028
1593,1801
1594,1429
1595,1488
1596,1823
1597,1727
1598,1343
1599,1315
1600,1683
1601,1698
1602,1339
1603,1255
1604,1627
1605,1717
1606,1372
1607,1235
1608,1570
1609,1743
1610,1447
1611,1243
1612,1515
1613,1799
1614,1554
1615,1267
1616,1453
1617,1803
1618,1617
1619,1293
1620,1407
1621,1805
1622,1717
1623,1366
1624,1381
1625,1761
1626,1761
1627,1421
1628,1354
1629,1737
1630,1833
1631,1494
1632,1347
1633,1701
1634,1892
1635,1570
1636,1338
1637,1616
1638,1904
1639,1657
1640,1387
1641,1594
1642,1907
1643,1717
1644,1400
1645,1513
1646,1873
1647,1779
1648,1452
1649,1477
1650,1870
1651,1857
1652,1502
1653,1425
1654,1801
1655,1904
1656,1565
1657,1421
1658,1763
1659,1948
1660,1635
1661,1417
1662,1695
1663,1955
1664,1700
1665,1417
1666,1623
1667,1966
1668,1776
1669,1443
1670,1562
1671,1936
1672,1840
1673,1488
1674,1509
1675,1882
1676,1872
1677,1535
1678,1493
1679,1879
1680,1925
1681,1581
1682,1441
1683,1791
1684,1948
1685,1647
1686,1447
1687,1740
1688,2006
1689,1744
1690,1461
1691,1653
1692,1983
1693,1787
1694,1481
1695,1613
1696,1984
1697,1891
1698,1535
1699,1573
1700,1943
1701,1932
1702,1584
1703,1523
1704,1913
1705,1999
1706,1654
1707,1505
1708,1843
1709,1991
1710,1680
1711,1488
1712,1785
1713,2030
1714,1777
1715,1510
1716,1738
1717,2079
1718,1862
1719,1530
1720,1658
1721,2053
1722,1925
1723,1567
1724,1601
1725,1999
1726,1991
1727,1638
1728,1587
1729,1959
1730,2034
1731,1693
1732,1578
1733,1917
1734,2062
1735,1743
1736,1535
1737,1841
1738,2113
1739,1840
1740,1584
1741,1808
1742,2175
1743,2063
1744,1697
1745,1830
1746,2192
1747,2063
1748,1715
1749,1778
1750,2192
1751,2169
1752,1795
1753,1723
1754,2063
1755,2081
1756,1751
1757,1646
1758,1999
1759,2160
1760,1803
1761,1578
1762,1835
1763,2073
1764,1794
1765,1535
1766,1765
1767,2089
1768,1880
1769,1584
1770,1723
1771,2064
1772,1921
1773,1601
1774,1653
1775,2027
1776,1979
1777,1630
1778,1577
1779,1936
1780,2039
1781,1847
1782,2054
1783,2877
1784,3971
1785,4095
1786,4077
1787,4095
1788,4062
1789,2946
1790,2163
1791,1968
1792,2086
1793,1824
1794,1535
1795,1719
1796,2102
1797,1972
1798,1633
1799,1693
1800,2065
1801,1998
1802,1648
1803,1630
1804,1987
1805,2000
1806,1673
1807,1586
1808,1947
1809,2112
1810,1790
1811,1586
1812,1873
1813,2139
1814,1865
1815,1600
1816,1823
1817,2130
1818,1932
1819,1643
1820,1789
1821,2149
1822,2015
1823,1685
1824,1763
1825,2133
1826,2069
1827,1747
1828,1756
1829,2147
1830,2212
1831,1855
1832,1744
1833,2095
1834,2268
1835,1971
1836,1812
1837,2134
1838,2367
1839,2096
1840,1861
1841,2129
1842,2439
1843,2247
1844,2001
1845,2193
1846,2559
1847,2475
1848,2187
1849,2268
1850,2663
1851,2640
1852,2301
1853,2281
1854,2658
1855,2727
1856,2353
1857,2183
1858,2459
1859,2553
1860,2176
1861,1910
1862,2085
1863,2221
1864,1907
1865,1614
1866,1748
1867,1968
1868,1716
1869,1409
1870,1498
1871,1776
1872,1630
1873,1321
1874,1375
1875,1700
1876,1655
1877,1362
1878,1341
1879,1661
1880,1683
1881,1387
1882,1285
1883,1591
1884,1683
1885,1397
1886,1269
1887,1535
1888,1750
1889,1492
1890,1298
1891,1520
1892,1785
1893,1581
1894,1311
1895,1441
1896,1738
1897,1590
1898,1342
1899,1436
1900,1781
1901,1733
1902,1428
1903,1418
1904,1750
1905,1753
1906,1458
1907,1403
1908,1741
1909,1808
1910,1514
1911,1383
1912,1680
1913,1873
1914,1623
1915,1404
1916,1630
1917,1898
1918,1683
1919,1419
1920,1566
1921,1877
1922,1727
1923,1409
1924,1493
1925,1856
1926,1815
1927,1477
1928,1456
1929,1808
1930,1826
1931,1506
1932,1426
1933,1755
1934,1874
1935,1575
1936,1417
1937,1712
1938,1904
1939,1626
1940,1414
1941,1645
1942,1923
1943,1701
1944,1422
1945,1597
1946,1922
1947,1755
1948,1443
1949,1531
1950,1882
1951,1810
1952,1501
1953,1499
1954,1855
1955,1840
1956,1517
1957,1465
1958,1826
1959,1889
1960,1584
1961,1456
1962,1777
1963,1965
1964,1680
1965,1466
1966,1727
1967,1975
1968,1721
1969,1451
1970,1646
1971,1984
1972,1808
1973,1483
1974,1584
1975,1949
1976,1860
1977,1519
1978,1535
1979,1938
1980,1968
1981,1608
1982,1526
1983,1904
1984,1994
1985,1661
1986,1508
1987,1822
1988,2032
1989,1728
1990,1503
1991,1782
1992,2077
1993,1808
1994,1526
1995,1726
1996,2023
1997,1837
1998,1530
1999,1664
2000,2066
2001,2001
2002,1670
2003,1689
2004,2075
2005,2073
2006,1717
2007,1655
2008,2021
2009,2161
2010,1873
2011,1743
2012,2032
2013,2197
2014,1846
2015,1611
2016,1869
2017,2147
2018,1879
2019,1589
2020,1766
2021,2095
2022,1909
2023,1584
2024,1675
2025,2016
2026,1942
2027,1591
2028,1607
2029,1968
2030,1963
2031,1648
2032,1585
2033,1941
2034,2032
2035,1713
2036,1574
2037,1872
2038,2035
2039,1706
2040,1501
2041,1904
2042,2494
2043,2733
2044,3035
2045,4094
2046,4095
2047,4095
2048,3579
2049,3056
2050,2771
2051,2171
2052,1573
2053,1526
2054,1948
2055,1989
2056,1707
2057,1658
2058,2001
2059,2087
2060,1742
2061,1581
2062,1878
2063,2070
2064,1830
2065,1571
2066,1838
2067,2101
2068,1855
2069,1595
2070,1780
2071,2100
2072,1919
2073,1620
2074,1744
2075,2080
2076,1970
2077,1681
2078,1727
2079,2111
2080,2112
2081,1763
2082,1698
2083,2046
2084,2155
2085,1840
2086,1699
2087,2028
2088,2229
2089,1939
2090,1734
2091,2003
2092,2275
2093,2041
2094,1808
2095,2007
2096,2321
2097,2176
2098,1904
2099,2042
2100,2422
2101,2337
2102,2035
2103,2106
2104,2491
2105,2483
2106,2191
2107,2195
2108,2583
2109,2672
2110,2361
2111,2267
2112,2599
2113,2768
2114,2454
2115,2261
2116,2495
2117,2662
2118,2352
2119,2063
2120,2186
2121,2399
2122,2112
2123,1749
2124,1803
2125,2071
2126,1885
2127,1495
2128,1488
2129,1820
2130,1767
2131,1414
2132,1360
2133,1696
2134,1711
2135,1385
2136,1280
2137,1597
2138,1682
2139,1402
2140,1262
2141,1535
2142,1727
2143,1463
2144,1268
2145,1494
2146,1744
2147,1521
2148,1280
2149,1379
2150,1782
2151,1626
2152,1334
2153,1422
2154,1776
2155,1693
2156,1380
2157,1385
2158,1743
2159,1794
2160,1471
2161,1385
2162,1696
2163,1812
2164,1520
2165,1373
2166,1669
2167,1901
2168,1634
2169,1403
2170,1619
2171,1895
2172,1686
2173,1424
2174,1582
2175,1887
2176,1739
2177,1447
2178,1529
2179,1867
2180,1782
2181,1475
2182,1486
2183,1834
2184,1791
2185,1493
2186,1445
2187,1792
2188,1887
2189,1590
2190,1446
2191,1728
2192,1857
2193,1584
2194,1399
2195,1667
2196,1927
2197,1701
2198,1450
2199,1623
2200,1947
2201,1776
2202,1451
2203,1493
2204,1910
2205,1843
2206,1514
2207,1502
2208,1872
2209,1873
2210,1553
2211,1479
2212,1837
2213,1937
2214,1623
2215,1472
2216,1776
2217,1958
2218,1674
2219,1463
2220,1717
2221,1984
2222,1755
2223,1491
2224,1679
2225,2000
2226,1834
2227,1516
2228,1604
2229,1966
2230,1877
2231,1565
2232,1578
2233,1942
2234,1956
2235,1629
2236,1535
2237,1877
2238,1975
2239,1663
2240,1518
2241,1837
2242,2047
2243,1765
2244,1535
2245,1774
2246,2042
2247,1808
2248,1535
2249,1707
2250,2037
2251,1879
2252,1571
2253,1652
2254,2005
2255,1951
2256,1620
2257,1612
2258,1968
2259,1995
2260,1669
2261,1604
2262,1931
2263,2039
2264,1733
2265,1587
2266,1874
2267,2080
2268,1791
2269,1581
2270,1815
2271,2081
2272,1842
2273,1596
2274,1777
2275,2111
2276,1969
2277,1708
2278,1826
2279,2171
2280,2065
2281,1726
2282,1750
2283,2131
2284,2170
2285,1863
2286,1771
2287,2074
2288,2137
2289,1798
2290,1651
2291,1940
2292,2106
2293,1820
2294,1613
2295,1841
2296,2091
2297,1835
2298,1575
2299,1751
2300,2065
2301,1901
2302,1615
2303,1714
2304,2058
2305,1968
2306,1660
2307,1658
2308,1997
2309,1984
2310,1666
2311,1605
2312,1913
2313,1967
2314,1735
2315,1811
2316,2471
2317,3248
2318,3703
2319,4065
2320,4095
2321,4095
2322,3701
2323,2749
2324,2331
2325,2163
2326,1797
2327,1520
2328,1697
2329,2059
2330,1954
2331,1686
2332,1731
2333,2045
2334,1942
2335,1646
2336,1623
2337,1967
2338,1997
2339,1699
2340,1600
2341,1909
2342,2035
2343,1747
2344,1601
2345,1884
2346,2121
2347,1859
2348,1635
2349,1837
2350,2112
2351,1924
2352,1669
2353,1805
2354,2134
2355,2047
2356,1757
2357,1799
2358,2132
2359,2098
2360,1806
2361,1778
2362,2133
2363,2182
2364,1879
2365,1787
2366,2124
2367,2288
2368,2023
2369,1863
2370,2135
2371,2349
2372,2119
2373,1918
2374,2160
2375,2459
2376,2297
2377,2066
2378,2229
2379,2559
2380,2447
2381,2193
2382,2287
2383,2672
2384,2622
2385,2337
2386,2349
2387,2734
2388,2771
2389,2423
2390,2278
2391,2544
2392,2628
2393,2249
2394,1989
2395,2176
2396,2317
2397,1974
2398,1669
2399,1813
2400,2032
2401,1771
2402,1444
2403,1535
2404,1825
2405,1667
2406,1351
2407,1405
2408,1745
2409,1679
2410,1355
2411,1331
2412,1678
2413,1713
2414,1394
2415,1302
2416,1602
2417,1735
2418,1455
2419,1296
2420,1572
2421,1769
2422,1505
2423,1313
2424,1535
2425,1808
2426,1591
2427,1335
2428,1474
2429,1805
2430,1671
2431,1371
2432,1439
2433,1794
2434,1750
2435,1441
2436,1431
2437,1792
2438,1823
2439,1490
2440,1392
2441,1701
2442,1829
2443,1558
2444,1395
2445,1685
2446,1875
2447,1615
2448,1392
2449,1616
2450,1881
2451,1668
2452,1418
2453,1583
2454,1878
2455,1741
2456,1455
2457,1529
2458,1862
2459,1803
2460,1495
2461,1488
2462,1826
2463,1829
2464,1518
2465,1456
2466,1781
2467,1877
2468,1577
2469,1442
2470,1723
2471,1888
2472,1631
2473,1439
2474,1677
2475,1895
2476,1680
2477,1451
2478,1626
2479,1936
2480,1776
2481,1489
2482,1575
2483,1904
2484,1842
2485,1553
2486,1535
2487,1839
2488,1853
2489,1575
2490,1504
2491,1823
2492,1911
2493,1622
2494,1485
2495,1773
2496,1954
2497,1705
2498,1495
2499,1712
2500,1968
2501,1776
2502,1523
2503,1681
2504,1943
2505,1791
2506,1535
2507,1651
2508,1963
2509,1861
2510,1566
2511,1577
2512,1939
2513,1943
2514,1619
2515,1535
2516,1894
2517,2011
2518,1697
2519,1535
2520,1811
2521,2015
2522,1746
2523,1519
2524,1747
2525,2030
2526,1806
2527,1535
2528,1695
2529,2011
2530,1859
2531,1583
2532,1657
2533,2011
2534,1961
2535,1626
2536,1605
2537,1975
2538,2003
2539,1680
2540,1584
2541,1920
2542,2043
2543,1731
2544,1565
2545,1841
2546,2055
2547,1766
2548,1535
2549,1791
2550,2068
2551,1852
2552,1603
2553,1794
2554,2143
2555,2007
2556,1711
2557,1784
2558,2128
2559,2039
2560,1732
2561,1765
2562,2153
2563,2167
2564,1801
2565,1674
2566,1987
2567,2123
2568,1805
2569,1631
2570,1913
2571,2099
2572,1802
2573,1571
2574,1797
2575,2038
2576,1808
2577,1535
2578,1730
2579,2038
2580,1872
2581,1585
2582,1686
2583,2001
2584,1891
2585,1603
2586,1633
2587,1991
2588,1933
2589,1602
2590,1527
2591,1879
2592,2034
2593,1989
2594,2288
2595,3221
2596,4095
2597,4095
2598,4029
2599,4049
2600,3715
2601,2682
2602,1915
2603,1771
2604,1967
2605,1808
2606,1584
2607,1732
2608,2096
2609,1994
2610,1664
2611,1676
2612,2041
2613,2015
2614,1669
2615,1595
2616,1959
2617,2073
2618,1731
2619,1582
2620,1879
2621,2082
2622,1791
2623,1582
2624,1843
2625,2138
2626,1891
2627,1614
2628,1791
2629,2130
2630,1975
2631,1664
2632,1770
2633,2151
2634,2093
2635,1745
2636,1758
2637,2144
2638,2176
2639,1834
2640,1748
2641,2109
2642,2247
2643,1935
2644,1783
2645,2110
2646,2324
2647,2061
2648,1854
2649,2119
2650,2369
2651,2159
2652,1920
2653,2160
2654,2473
2655,2331
2656,2087
2657,2238
2658,2627
2659,2541
2660,2245
2661,2299
2662,2704
2663,2686
2664,2352
2665,2302
2666,2672
2667,2768
2668,2384
2669,2174
2670,2418
2671,2513
2672,2128
2673,1840
2674,2017
2675,2229
2676,1920
2677,1572
2678,1686
2679,1945
2680,1737
2681,1389
2682,1470
2683,1791
2684,1664
2685,1312
2686,1339
2687,1703
2688,1627
2689,1318
2690,1299
2691,1677
2692,1730
2693,1379
2694,1232
2695,1571
2696,1769
2697,1381
2698,1253
2699,1520
2700,1776
2701,1508
2702,1261
2703,1481
2704,1816
2705,1620
2706,1341
2707,1436
2708,1891
2709,1753
2710,1350
2711,1354
2712,1735
2713,1744
2714,1410
2715,1355
2716,1716
2717,1810
2718,1485
2719,1350
2720,1681
2721,1863
2722,1569
2723,1360
2724,1643
2725,1913
2726,1676
2727,1398
2728,1694
2729,1938
2730,1746
2731,1423
2732,1535
2733,1927
2734,1840
2735,1469
2736,1473
2737,1862
2738,1873
2739,1521
2740,1427
2741,1787
2742,1877
2743,1526
2744,1393
2745,1723
2746,1935
2747,1626
2748,1392
2749,1670
2750,1966
2751,1726
2752,1402
2753,1586
2754,1970
2755,1830
2756,1473
2757,1523
2758,1873
2759,1801
2760,1462
2761,1488
2762,1890
2763,1910
2764,1535
2765,1461
2766,1817
2767,1898
2768,1577
2769,1445
2770,1787
2771,1959
2772,1648
2773,1441
2774,1721
2775,2001
2776,1742
2777,1456
2778,1666
2779,1995
2780,1799
2781,1472
2782,1597
2783,2000
2784,1950
2785,1590
2786,1613
2787,1984
2788,1938
2789,1649
2790,1497
2791,1879
2792,1936
2793,1609
2794,1488
2795,1839
2796,2033
2797,1715
2798,1500
2799,1780
2800,2061
2801,1792
2802,1512
2803,1725
2804,2093
2805,1893
2806,1559
2807,1678
2808,2035
2809,1931
2810,1594
2811,1625
2812,2026
2813,1999
2814,1637
2815,1586
2816,1967
2817,2061
2818,1696
2819,1565
2820,1904
2821,2105
2822,1804
2823,1614
2824,1929
2825,2224
2826,1937
2827,1647
2828,1863
2829,2180
2830,1970
2831,1712
2832,1866
2833,2223
2834,2064
2835,1674
2836,1687
2837,2087
2838,2081
2839,1713
2840,1636
2841,1982
2842,2004
2843,1661
2844,1535
2845,1895
2846,2063
2847,1719
2848,1517
2849,1808
2850,2081
2851,1806
2852,1524
2853,1759
2854,2118
2855,1919
2856,1584
2857,1700
2858,2047
2859,1890
2860,1507
2861,1616
2862,2203
2863,2525
2864,2649
2865,3218
2866,4095
2867,4095
2868,4034
2869,3379
2870,3120
2871,2669
2872,1915
2873,1499
2874,1765
2875,2028
2876,1791
2877,1555
2878,1807
2879,2144
2880,1915
2881,1582
2882,1716
2883,2083
2884,1949
2885,1600
2886,1649
2887,2045
2888,2009
2889,1646
2890,1613
2891,2001
2892,2090
2893,1731
2894,1615
2895,1965
2896,2097
2897,1776
2898,1603
2899,1917
2900,2183
2901,1897
2902,1642
2903,1872
2904,2195
2905,1983
2906,1680
2907,1840
2908,2213
2909,2099
2910,1775
2911,1846
2912,2225
2913,2177
2914,1853
2915,1860
2916,2239
2917,2295
2918,1968
2919,1903
2920,2282
2921,2429
2922,2147
2923,2005
2924,2320
2925,2485
2926,2257
2927,2127
2928,2412
2929,2698
2930,2480
2931,2250
2932,2433
2933,2755
2934,2559
2935,2288
2936,2349
2937,2682
2938,2526
2939,2176
2940,2131
2941,2399
2942,2291
2943,1894
2944,1760
2945,2025
2946,2058
2947,1679
2948,1475
2949,1729
2950,1889
2951,1584
2952,1357
2953,1579
2954,1742
2955,1499
2956,1290
2957,1479
2958,1749
2959,1571
2960,1295
2961,1395
2962,1731
2963,1605
2964,1307
2965,1350
2966,1714
2967,1726
2968,1409
2969,1333
2970,1669
2971,1717
2972,1441
2973,1340
2974,1645
2975,1776
2976,1509
2977,1334
2978,1582
2979,1845
2980,1631
2981,1372
2982,1526
2983,1831
2984,1703
2985,1360
2986,1479
2987,1802
2988,1717
2989,1449
2990,1471
2991,1842
2992,1807
2993,1499
2994,1424
2995,1730
2996,1825
2997,1535
2998,1419
2999,1685
3000,1845
3001,1616
3002,1424
3003,1650
3004,1854
3005,1641
3006,1423
3007,1606
3008,1902
3009,1734
3010,1446
3011,1535
3012,1851
3013,1777
3014,1497
3015,1517
3016,1851
3017,1792
3018,1511
3019,1472
3020,1789
3021,1889
3022,1589
3023,1455
3024,1740
3025,1918
3026,1673
3027,1469
3028,1680
3029,1894
3030,1681
3031,1466
3032,1637
3033,1924
3034,1782
3035,1506
3036,1600
3037,1913
3038,1830
3039,1535
3040,1559
3041,1899
3042,1856
3043,1575
3044,1517
3045,1831
3046,1894
3047,1616
3048,1503
3049,1805
3050,1939
3051,1706
3052,1535
3053,1778
3054,1978
3055,1751
3056,1527
3057,1716
3058,1970
3059,1810
3060,1584
3061,1688
3062,1968
3063,1855
3064,1600
3065,1647
3066,1973
3067,1904
3068,1638
3069,1609
3070,1915
3071,1967
3072,1685
3073,1584
3074,1863
3075,1985
3076,1726
3077,1577
3078,1815
3079,1957
3080,1747
3081,1591
3082,1796
3083,2063
3084,1854
3085,1611
3086,1723
3087,2007
3088,1915
3089,1642
3090,1680
3091,1993
3092,1904
3093,1626
3094,1631
3095,1980
3096,2018
3097,1712
3098,1607
3099,1929
3100,2066
3101,1830
3102,1680
3103,1964
3104,2158
3105,1899
3106,1680
3107,1903
3108,2199
3109,2003
3110,1747
3111,1871
3112,2160
3113,1984
3114,1675
3115,1732
3116,2082
3117,2011
3118,1685
3119,1647
3120,1974
3121,1982
3122,1684
3123,1584
3124,1904
3125,2003
3126,1711
3127,1535
3128,1838
3129,2060
3130,1808
3131,1578
3132,1778
3133,2023
3134,1815
3135,1571
3136,1721
3137,2007
3138,1833
3139,1535
3140,1730
3141,2339
3142,2661
3143,2931
3144,3703
3145,4095
3146,4095
3147,3843
3148,3149
3149,2832
3150,2339
3151,1728
3152,1487
3153,1814
3154,2083
3155,1838
3156,1637
3157,1869
3158,2122
3159,1889
3160,1613
3161,1750
3162,2031
3163,1863
3164,1584
3165,1686
3166,2035
3167,1955
3168,1652
3169,1659
3170,2003
3171,1977
3172,1685
3173,1643
3174,1959
3175,2063
3176,1773
3177,1629
3178,1930
3179,2093
3180,1840
3181,1662
3182,1911
3183,2189
3184,1951
3185,1701
3186,1866
3187,2160
3188,1999
3189,1751
3190,1871
3191,2209
3192,2133
3193,1843
3194,1871
3195,2231
3196,2173
3197,1943
3198,1941
3199,2295
3200,2415
3201,2133
3202,2021
3203,2330
3204,2471
3205,2265
3206,2135
3207,2425
3208,2692
3209,2487
3210,2268
3211,2448
3212,2722
3213,2539
3214,2304
3215,2401
3216,2675
3217,2491
3218,2134
3219,2084
3220,2353
3221,2233
3222,1873
3223,1749
3224,1991
3225,2000
3226,1648
3227,1466
3228,1707
3229,1801
3230,1513
3231,1327
3232,1535
3233,1737
3234,1509
3235,1286
3236,1456
3237,1711
3238,1526
3239,1296
3240,1395
3241,1687
3242,1530
3243,1311
3244,1367
3245,1671
3246,1639
3247,1372
3248,1353
3249,1649
3250,1677
3251,1438
3252,1360
3253,1638
3254,1759
3255,1518
3256,1375
3257,1604
3258,1782
3259,1569
3260,1365
3261,1574
3262,1827
3263,1646
3264,1395
3265,1498
3266,1790
3267,1699
3268,1456
3269,1494
3270,1807
3271,1712
3272,1473
3273,1501
3274,1825
3275,1842
3276,1555
3277,1446
3278,1735
3279,1840
3280,1606
3281,1466
3282,1694
3283,1850
3284,1617
3285,1456
3286,1668
3287,1903
3288,1727
3289,1485
3290,1604
3291,1878
3292,1712
3293,1429
3294,1535
3295,1881
3296,1790
3297,1506
3298,1486
3299,1789
3300,1776
3301,1577
3302,1529
3303,1808
3304,1914
3305,1645
3306,1479
3307,1726
3308,1905
3309,1687
3310,1579
3311,1702
3312,1911
3313,1602
3314,1473
3315,1625
3316,1879
3317,1766
3318,1526
3319,1614
3320,1936
3321,1847
3322,1588
3323,1566
3324,1824
3325,1857
3326,1594
3327,1532
3328,1856
3329,1905
3330,1648
3331,1535
3332,1802
3333,1969
3334,1716
3335,1520
3336,1733
3337,1950
3338,1767
3339,1563
3340,1703
3341,1970
3342,1795
3343,1559
3344,1659
3345,1989
3346,1914
3347,1633
3348,1618
3349,1919
3350,1907
3351,1653
3352,1600
3353,1910
3354,2032
3355,1757
3356,1600
3357,1855
3358,2026
3359,1775
3360,1581
3361,1801
3362,2090
3363,1874
3364,1617
3365,1757
3366,2031
3367,1861
3368,1602
3369,1711
3370,2022
3371,1936
3372,1647
3373,1651
3374,1991
3375,1943
3376,1687
3377,1642
3378,1965
3379,2094
3380,1783
3381,1609
3382,1887
3383,2059
3384,1845
3385,1690
3386,1927
3387,2192
3388,1969
3389,1791
3390,1847
3391,2172
3392,2075
3393,1804
3394,1842
3395,2174
3396,2064
3397,1725
3398,1690
3399,2033
3400,2099
3401,1789
3402,1667
3403,1933
3404,1984
3405,1696
3406,1535
3407,1843
3408,2106
3409,1826
3410,1565
3411,1776
3412,2030
3413,1840
3414,1616
3415,1753
3416,2081
3417,1930
3418,1613
3419,1664
3420,2000
3421,1872
3422,1578
3423,1707
3424,2341
3425,2834
3426,3086
3427,3678
3428,4095
3429,4095
3430,3901
3431,3116
3432,2765
3433,2443
3434,1837
3435,1461
3436,1707
3437,2047
3438,1898
3439,1659
3440,1801
3441,2135
3442,2003
3443,1654
3444,1660
3445,1998
3446,1942
3447,1616
3448,1648
3449,2013
3450,2098
3451,1744
3452,1609
3453,1933
3454,2105
3455,1815
3456,1630
3457,1899
3458,2170
3459,1917
3460,1638
3461,1840
3462,2174
3463,1994
3464,1686
3465,1796
3466,2150
3467,2042
3468,1755
3469,1805
3470,2167
3471,2155
3472,1808
3473,1751
3474,2146
3475,2226
3476,1920
3477,1808
3478,2165
3479,2377
3480,2092
3481,1882
3482,2174
3483,2498
3484,2288
3485,2032
3486,2241
3487,2586
3488,2418
3489,2151
3490,2288
3491,2707
3492,2645
3493,2319
3494,2339
3495,2711
3496,2692
3497,2361
3498,2298
3499,2621
3500,2662
3501,2256
3502,2037
3503,2286
3504,2317
3505,1931
3506,1675
3507,1876
3508,2055
3509,1744
3510,1434
3511,1599
3512,1829
3513,1601
3514,1303
3515,1435
3516,1777
3517,1638
3518,1294
3519,1313
3520,1695
3521,1670
3522,1331
3523,1286
3524,1663
3525,1733
3526,1381
3527,1241
3528,1590
3529,1797
3530,1487
3531,1264
3532,1534
3533,1779
3534,1508
3535,1257
3536,1478
3537,1808
3538,1635
3539,1328
3540,1454
3541,1808
3542,1674
3543,1338
3544,1397
3545,1799
3546,1791
3547,1430
3548,1381
3549,1775
3550,1799
3551,1474
3552,1374
3553,1715
3554,1904
3555,1584
3556,1360
3557,1659
3558,1897
3559,1627
3560,1382
3561,1619
3562,1952
3563,1728
3564,1395
3565,1535
3566,1904
3567,1791
3568,1443
3569,1498
3570,1872
3571,1789
3572,1456
3573,1445
3574,1834
3575,1906
3576,1535
3577,1409
3578,1758
3579,1892
3580,1598
3581,1412
3582,1721
3583,1977
3584,1691
3585,1409
3586,1637
3587,1980
3588,1775
3589,1452
3590,1591
3591,1951
3592,1822
3593,1487
3594,1535
3595,1936
3596,1920
3597,1565
3598,1515
3599,1891
3600,1936
3601,1600
3602,1479
3603,1840
3604,2002
3605,1669
3606,1462
3607,1761
3608,2026
3609,1754
3610,1486
3611,1709
3612,1990
3613,1787
3614,1490
3615,1661
3616,2023
3617,1882
3618,1535
3619,1600
3620,1966
3621,1933
3622,1603
3623,1584
3624,1936
3625,1968
3626,1643
3627,1535
3628,1898
3629,2029
3630,1705
3631,1503
3632,1823
3633,2039
3634,1765
3635,1533
3636,1776
3637,2037
3638,1834
3639,1579
3640,1742
3641,2079
3642,1922
3643,1590
3644,1651
3645,2014
3646,1947
3647,1639
3648,1641
3649,1997
3650,2034
3651,1700
3652,1597
3653,1934
3654,2064
3655,1743
3656,1579
3657,1881
3658,2064
3659,1813
3660,1639
3661,1923
3662,2239
3663,1997
3664,1665
3665,1811
3666,2179
3667,2064
3668,1774
3669,1826
3670,2170
3671,2067
3672,1686
3673,1649
3674,2032
3675,2099
3676,1744
3677,1616
3678,1927
3679,2026
3680,1703
3681,1531
3682,1840
3683,2078
3684,1786
3685,1535
3686,1766
3687,2096
3688,1884
3689,1583
3690,1728
3691,2053
3692,1894
3693,1591
3694,1667
3695,1997
3696,1895
3697,1594
3698,1734
3699,2427
3700,2997
3701,3273
3702,3854
3703,4095
3704,4095
3705,3622
3706,2848
3707,2559
3708,2303
3709,1770
3710,1484
3711,1748
3712,2079
3713,1880
3714,1616
3715,1779
3716,2105
3717,1933
3718,1614
3719,1689
3720,2063
3721,1917
3722,1655
3723,1664
3724,1994
3725,1941
3726,1659
3727,1629
3728,1988
3729,2099
3730,1776
3731,1616
3732,1922
3733,2151
3734,1869
3735,1647
3736,1882
3737,2135
3738,1907
3739,1664
3740,1857
3741,2206
3742,2047
3743,1726
3744,1803
3745,2192
3746,2160
3747,1826
3748,1825
3749,2195
3750,2208
3751,1893
3752,1840
3753,2207
3754,2352
3755,2064
3756,1910
3757,2247
3758,2455
3759,2202
3760,2015
3761,2304
3762,2609
3763,2378
3764,2134
3765,2331
3766,2698
3767,2555
3768,2278
3769,2379
3770,2761
3771,2672
3772,2309
3773,2283
3774,2622
3775,2610
3776,2206
3777,2030
3778,2271
3779,2273
3780,1869
3781,1654
3782,1891
3783,2017
3784,1681
3785,1421
3786,1637
3787,1874
3788,1603
3789,1291
3790,1449
3791,1776
3792,1616
3793,1285
3794,1370
3795,1722
3796,1613
3797,1295
3798,1322
3799,1703
3800,1726
3801,1373
3802,1285
3803,1652
3804,1712
3805,1395
3806,1272
3807,1600
3808,1798
3809,1490
3810,1289
3811,1535
3812,1808
3813,1583
3814,1306
3815,1493
3816,1867
3817,1708
3818,1372
3819,1469
3820,1859
3821,1790
3822,1434
3823,1415
3824,1801
3825,1801
3826,1468
3827,1402
3828,1776
3829,1895
3830,1568
3831,1399
3832,1712
3833,1877
3834,1591
3835,1376
3836,1648
3837,1920
3838,1679
3839,1395
3840,1597
3841,1905
3842,1718
3843,1417
3844,1520
3845,1880
3846,1803
3847,1456
3848,1471
3849,1850
3850,1837
3851,1493
3852,1427
3853,1797
3854,1918
3855,1584
3856,1424
3857,1749
3858,1938
3859,1643
3860,1421
3861,1681
3862,1952
3863,1711
3864,1425
3865,1619
3866,1965
3867,1806
3868,1485
3869,1585
3870,1945
3871,1847
3872,1490
3873,1508
3874,1904
3875,1909
3876,1566
3877,1493
3878,1858
3879,1968
3880,1626
3881,1458
3882,1801
3883,2019
3884,1722
3885,1488
3886,1744
3887,1983
3888,1735
3889,1477
3890,1687
3891,2027
3892,1840
3893,1509
3894,1617
3895,1967
3896,1855
3897,1521
3898,1570
3899,1971
3900,1969
3901,1607
3902,1480
3903,1904
3904,1983
3905,1653
3906,1505
3907,1856
3908,2096
3909,1783
3910,1535
3911,1795
3912,2087
3913,1811
3914,1530
3915,1717
3916,2042
3917,1859
3918,1567
3919,1682
3920,2064
3921,1968
3922,1616
3923,1637
3924,2003
3925,1952
3926,1625
3927,1591
3928,1968
3929,2065
3930,1730
3931,1582
3932,1904
3933,2087
3934,1769
3935,1563
3936,1840
3937,2087
3938,1863
3939,1648
3940,1871
3941,2205
3942,2007
3943,1699
3944,1800
3945,2140
3946,2057
3947,1765
3948,1828
3949,2197
3950,2123
3951,1741
3952,1647
3953,2014
3954,2063
3955,1745
3956,1626
3957,1936
3958,2096
3959,1773
3960,1535
3961,1791
3962,2004
3963,1765
3964,1523
3965,1746
3966,2075
3967,1886
3968,1584
3969,1691
3970,2039
3971,1918
3972,1584
3973,1603
3974,1972
3975,1904
3976,1564
3977,1535
3978,2001
3979,2323
3980,2394
3981,2800
3982,4095
3983,4095
3984,4095
3985,3824
3986,3573
3987,3059
3988,2174
3989,1535
3990,1645
3991,1940
3992,1808
3993,1601
3994,1783
3995,2159
3996,1996
3997,1625
3998,1648
3999,1983
4000,1895
4001,1597
4002,1598
4003,1973
4004,2047
4005,1717
4006,1584
4007,1887
4008,2005
4009,1744
4010,1594
4011,1884
4012,2134
4013,1872
4014,1618
4015,1827
4016,2139
4017,1902
4018,1637
4019,1773
4020,2093
4021,1957
4022,1680
4023,1764
4024,2136
4025,2107
4026,1778
4027,1754
4028,2151
4029,2126
4030,1840
4031,1788
4032,2139
4033,2301
4034,2013
4035,1861
4036,2160
4037,2387
4038,2143
4039,1948
4040,2208
4041,2527
4042,2375
4043,2122
4044,2275
4045,2638
4046,2526
4047,2240
4048,2320
4049,2689
4050,2614
4051,2306
4052,2297
4053,2641
4054,2646
4055,2287
4056,2122
4057,2368
4058,2416
4059,2034
4060,1787
4061,1973
4062,2093
4063,1767
4064,1488
4065,1663
4066,1904
4067,1655
4068,1335
4069,1451
4070,1730
4071,1563
4072,1264
4073,1350
4074,1712
4075,1648
4076,1323
4077,1296
4078,1642
4079,1655
4080,1350
4081,1274
4082,1612
4083,1681
4084,1395
4085,1257
4086,1565
4087,1777
4088,1495
4089,1265
4090,1496
4091,1738
4092,1520
4093,1277
4094,1447
4095,1787
4096,1667
4097,1367
4098,1438
4099,1808
4100,1716
4101,1387
4102,1391
4103,1740
4104,1695
4105,1422
4106,1387
4107,1716
4108,1840
4109,1535
4110,1378
4111,1668
4112,1856
4113,1584
4114,1389
4115,1618
4116,1891
4117,1693
4118,1424
4119,1575
4120,1880
4121,1719
4122,1402
4123,1488
4124,1838
4125,1773
4126,1468
4127,1462
4128,1827
4129,1841
4130,1518
4131,1424
4132,1756
4133,1812
4134,1535
4135,1413
4136,1709
4137,1881
4138,1616
4139,1421
4140,1664
4141,1861
4142,1635
4143,1410
4144,1616
4145,1911
4146,1745
4147,1463
4148,1559
4149,1899
4150,1791
4151,1489
4152,1511
4153,1857
4154,1886
4155,1578
4156,1488
4157,1805
4158,1845
4159,1607
4160,1457
4161,1744
4162,1923
4163,1680
4164,1488
4165,1727
4166,1936
4167,1712
4168,1488
4169,1672
4170,1955
4171,1791
4172,1520
4173,1629
4174,1962
4175,1841
4176,1535
4177,1585
4178,1923
4179,1925
4180,1633
4181,1584
4182,1908
4183,1967
4184,1658
4185,1521
4186,1809
4187,1954
4188,1681
4189,1535
4190,1792
4191,2019
4192,1791
4193,1563
4194,1733
4195,1984
4196,1822
4197,1587
4198,1709
4199,2023
4200,1890
4201,1603
4202,1641
4203,1966
4204,1874
4205,1625
4206,1622
4207,1936
4208,1975
4209,1712
4210,1621
4211,1905
4212,2015
4213,1747
4214,1591
4215,1831
4216,2039
4217,1842
4218,1647
4219,1831
4220,2087
4221,1872
4222,1622
4223,1743
4224,2064
4225,1957
4226,1694
4227,1755
4228,2099
4229,2075
4230,1808
4231,1776
4232,2094
4233,2112
4234,1839
4235,1755
4236,2091
4237,2224
4238,1919
4239,1724
4240,1933
4241,2109
4242,1874
4243,1671
4244,1853
4245,2114
4246,1895
4247,1641
4248,1758
4249,2062
4250,1940
4251,1641
4252,1666
4253,1985
4254,1894
4255,1626
4256,1618
4257,1952
4258,1999
4259,1698
4260,1600
4261,1904
4262,1975
4263,1727
4264,1583
4265,1827
4266,2037
4267,1893
4268,1936
4269,2550
4270,3529
4271,4095
4272,4095
4273,4095
4274,4095
4275,3411
4276,2474
4277,2007
4278,2025
4279,1808
4280,1596
4281,1648
4282,2032
4283,2107
4284,1795
4285,1664
4286,1942
4287,2020
4288,1823
4289,1609
4290,1867
4291,2081
4292,1845
4293,1623
4294,1802
4295,2017
4296,1837
4297,1630
4298,1783
4299,2111
4300,2002
4301,1717
4302,1748
4303,2101
4304,2023
4305,1753
4306,1719
4307,2064
4308,2125
4309,1815
4310,1712
4311,2007
4312,2109
4313,1868
4314,1771
4315,2063
4316,2270
4317,2023
4318,1789
4319,1984
4320,2262
4321,2081
4322,1839
4323,1984
4324,2320
4325,2237
4326,1995
4327,2065
4328,2421
4329,2399
4330,2126
4331,2112
4332,2475
4333,2484
4334,2278
4335,2253
4336,2601
4337,2738
4338,2454
4339,2288
4340,2559
4341,2710
4342,2459
4343,2256
4344,2419
4345,2597
4346,2304
4347,1984
4348,2054
4349,2224
4350,1955
4351,1655
4352,1691
4353,1959
4354,1795
4355,1474
4356,1424
4357,1711
4358,1671
4359,1390
4360,1318
4361,1613
4362,1664
4363,1375
4364,1254
4365,1533
4366,1705
4367,1447
4368,1264
4369,1472
4370,1647
4371,1414
4372,1259
4373,1447
4374,1744
4375,1579
4376,1314
4377,1392
4378,1695
4379,1587
4380,1345
4381,1386
4382,1735
4383,1733
4384,1431
4385,1349
4386,1635
4387,1712
4388,1461
4389,1360
4390,1648
4391,1770
4392,1511
4393,1344
4394,1600
4395,1819
4396,1595
4397,1392
4398,1567
4399,1782
4400,1599
4401,1407
4402,1529
4403,1812
4404,1701
4405,1435
4406,1456
4407,1774
4408,1718
4409,1479
4410,1439
4411,1746
4412,1794
4413,1501
4414,1399
4415,1680
4416,1776
4417,1569
4418,1424
4419,1659
4420,1839
4421,1584
4422,1370
4423,1535
4424,1831
4425,1695
4426,1461
4427,1554
4428,1836
4429,1670
4430,1456
4431,1503
4432,1829
4433,1777
4434,1498
4435,1455
4436,1765
4437,1831
4438,1569
4439,1445
4440,1789
4441,1851
4442,1609
4443,1450
4444,1670
4445,1808
4446,1602
4447,1448
4448,1654
4449,1936
4450,1733
4451,1479
4452,1584
4453,1865
4454,1774
4455,1508
4456,1530
4457,1833
4458,1762
4459,1531
4460,1530
4461,1841
4462,1846
4463,1591
4464,1495
4465,1775
4466,1902
4467,1633
4468,1469
4469,1719
4470,1931
4471,1706
4472,1486
4473,1648
4474,1904
4475,1751
4476,1535
4477,1648
4478,1936
4479,1757
4480,1523
4481,1595
4482,1917
4483,1870
4484,1600
4485,1535
4486,1857
4487,1899
4488,1643
4489,1535
4490,1815
4491,1863
4492,1643
4493,1535
4494,1805
4495,1981
4496,1741
4497,1535
4498,1733
4499,2000
4500,1808
4501,1578
4502,1681
4503,1961
4504,1851
4505,1651
4506,1721
4507,2034
4508,1935
4509,1714
4510,1717
4511,2029
4512,2076
4513,1807
4514,1728
4515,2014
4516,2123
4517,1826
4518,1646
4519,1856
4520,2062
4521,1817
4522,1614
4523,1776
4524,1960
4525,1771
4526,1584
4527,1700
4528,1994
4529,1808
4530,1569
4531,1616
4532,1956
4533,1907
4534,1633
4535,1593
4536,1865
4537,1879
4538,1637
4539,1571
4540,1844
4541,1933
4542,1679
4543,1520
4544,1807
4545,2150
4546,2304
4547,2654
4548,3626
4549,4095
4550,4095
4551,3838
4552,3406
4553,2995
4554,2277
4555,1674
4556,1584
4557,1905
4558,1867
4559,1636
4560,1635
4561,1968
4562,1989
4563,1744
4564,1639
4565,1901
4566,2002
4567,1744
4568,1584
4569,1819
4570,2010
4571,1773
4572,1598
4573,1779
4574,1985
4575,1810
4576,1634
4577,1774
4578,2079
4579,1922
4580,1659
4581,1702
4582,2002
4583,1968
4584,1719
4585,1696
4586,2003
4587,2064
4588,1809
4589,1718
4590,1989
4591,2109
4592,1886
4593,1761
4594,1995
4595,2160
4596,1981
4597,1825
4598,2006
4599,2237
4600,2039
4601,1877
4602,2059
4603,2395
4604,2241
4605,2011
4606,2091
4607,2447
4608,2418
4609,2187
4610,2175
4611,2503
4612,2559
4613,2318
4614,2247
4615,2558
4616,2674
4617,2421
4618,2290
4619,2559
4620,2666
4621,2370
4622,2147
4623,2274
4624,2459
4625,2185
4626,1872
4627,1904
4628,2124
4629,1936
4630,1633
4631,1603
4632,1862
4633,1732
4634,1456
4635,1423
4636,1719
4637,1697
4638,1423
4639,1359
4640,1642
4641,1709
4642,1459
4643,1318
4644,1569
4645,1734
4646,1482
4647,1305
4648,1509
4649,1842
4650,1665
4651,1367
4652,1471
4653,1757
4654,1653
4655,1408
4656,1452
4657,1710
4658,1696
4659,1445
4660,1429
4661,1744
4662,1764
4663,1508
4664,1424
4665,1701
4666,1798
4667,1636
4668,1448
4669,1678
4670,1818
4671,1622
4672,1459
4673,1662
4674,1856
4675,1663
4676,1488
4677,1630
4678,1911
4679,1743
4680,1505
4681,1535
4682,1877
4683,1796
4684,1523
4685,1519
4686,1830
4687,1837
4688,1568
4689,1490
4690,1776
4691,1876
4692,1616
4693,1469
4694,1721
4695,1902
4696,1681
4697,1493
4698,1680
4699,1854
4700,1684
4701,1517
4702,1659
4703,1923
4704,1734
4705,1510
4706,1589
4707,1905
4708,1829
4709,1569
4710,1566
4711,1869
4712,1877
4713,1603
4714,1529
4715,1814
4716,1861
4717,1651
4718,1565
4719,1815
4720,1943
4721,1733
4722,1582
4723,1776
4724,1979
4725,1764
4726,1558
4727,1691
4728,1968
4729,1836
4730,1601
4731,1651
4732,1959
4733,1894
4734,1626
4735,1610
4736,1911
4737,1943
4738,1697
4739,1620
4740,1827
4741,1986
4742,1737
4743,1607
4744,1856
4745,2001
4746,1801
4747,1625
4748,1815
4749,2000
4750,1808
4751,1620
4752,1767
4753,2072
4754,1899
4755,1653
4756,1712
4757,1997
4758,1950
4759,1701
4760,1678
4761,1943
4762,1942
4763,1708
4764,1651
4765,1936
4766,2039
4767,1803
4768,1659
4769,1873
4770,1989
4771,1783
4772,1628
4773,1841
4774,2110
4775,1900
4776,1664
4777,1775
4778,2066
4779,1968
4780,1751
4781,1821
4782,2109
4783,2046
4784,1788
4785,1771
4786,2096
4787,2142
4788,1907
4789,1839
4790,2093
4791,2112
4792,1824
4793,1698
4794,1950
4795,2074
4796,1843
4797,1674
4798,1861
4799,2073
4800,1855
4801,1638
4802,1751
4803,2001
4804,1840
4805,1611
4806,1663
4807,1969
4808,1904
4809,1675
4810,1667
4811,1979
4812,1954
4813,1702
4814,1626
4815,1901
4816,1938
4817,1678
4818,1611
4819,2043
4820,2500
4821,2804
4822,3344
4823,4095
4824,4095
4825,4095
4826,3538
4827,3024
4828,2655
4829,1994
4830,1535
4831,1603
4832,1963
4833,1968
4834,1757
4835,1758
4836,2021
4837,1983
4838,1727
4839,1669
4840,1951
4841,2064
4842,1803
4843,1639
4844,1867
4845,2026
4846,1806
4847,1645
4848,1854
4849,2090
4850,1877
4851,1682
4852,1825
4853,2086
4854,1920
4855,1713
4856,1806
4857,2131
4858,2015
4859,1791
4860,1799
4861,2095
4862,2045
4863,1836
4864,1806
4865,2123
4866,2176
4867,1923
4868,1805
4869,2083
4870,2275
4871,2061
4872,1876
4873,2089
4874,2326
4875,2147
4876,1948
4877,2112
4878,2384
4879,2267
4880,2065
4881,2167
4882,2487
4883,2442
4884,2239
4885,2273
4886,2615
4887,2586
4888,2384
4889,2357
4890,2659
4891,2714
4892,2448
4893,2310
4894,2559
4895,2727
4896,2405
4897,2128
4898,2239
4899,2367
4900,2096
4901,1810
4902,1874
4903,2076
4904,1843
4905,1560
4906,1584
4907,1833
4908,1726
4909,1438
4910,1407
4911,1706
4912,1725
4913,1443
4914,1341
4915,1614
4916,1662
4917,1413
4918,1317
4919,1570
4920,1660
4921,1462
4922,1344
4923,1569
4924,1735
4925,1516
4926,1332
4927,1490
4928,1799
4929,1636
4930,1382
4931,1461
4932,1798
4933,1665
4934,1425
4935,1416
4936,1746
4937,1771
4938,1487
4939,1392
4940,1710
4941,1787
4942,1526
4943,1421
4944,1680
4945,1836
4946,1584
4947,1415
4948,1637
4949,1865
4950,1650
4951,1430
4952,1598
4953,1855
4954,1712
4955,1487
4956,1571
4957,1873
4958,1743
4959,1523
4960,1560
4961,1835
4962,1791
4963,1535
4964,1508
4965,1817
4966,1843
4967,1581
4968,1469
4969,1737
4970,1886
4971,1643
4972,1472
4973,1697
4974,1933
4975,1733
4976,1492
4977,1631
4978,1903
4979,1748
4980,1514
4981,1592
4982,1871
4983,1779
4984,1535
4985,1563
4986,1833
4987,1843
4988,1569
4989,1535
4990,1810
4991,1872
4992,1618
4993,1518
4994,1789
4995,1929
4996,1685
4997,1531
4998,1741
4999,1965
5000,1773
5001,1567
5002,1700
5003,1936
5004,1775
5005,1569
5006,1669
5007,1936
5008,1795
5009,1584
5010,1623
5011,1913
5012,1843
5013,1646
5014,1631
5015,1925
5016,1950
5017,1681
5018,1584
5019,1867
5020,2034
5021,1794
5022,1606
5023,1803
5024,2014
5025,1808
5026,1610
5027,1770
5028,2033
5029,1811
5030,1609
5031,1709
5032,1987
5033,1907
5034,1670
5035,1673
5036,1963
5037,1947
5038,1694
5039,1647
5040,1936
5041,2006
5042,1759
5043,1648
5044,1882
5045,1964
5046,1742
5047,1634
5048,1868
5049,2035
5050,1844
5051,1664
5052,1819
5053,2055
5054,1859
5055,1648
5056,1769
5057,2079
5058,1908
5059,1669
5060,1715
5061,2034
5062,2006
5063,1735
5064,1678
5065,1985
5066,2076
5067,1851
5068,1751
5069,2038
5070,2174
5071,1927
5072,1745
5073,1978
5074,2203
5075,2018
5076,1839
5077,1970
5078,2163
5079,1932
5080,1699
5081,1807
5082,2113
5083,2017
5084,1747
5085,1723
5086,2000
5087,1971
5088,1715
5089,1666
5090,1943
5091,1995
5092,1744
5093,1645
5094,1906
5095,2046
5096,1802
5097,1633
5098,1854
5099,2042
5100,1835
5101,1635
5102,1775
5103,2014
5104,1808
5105,1485
5106,1838
5107,2437
5108,2846
5109,3222
5110,4021
5111,4095
5112,4095
5113,3787
5114,3056
5115,2721
5116,2197
5117,1682
5118,1559
5119,1887
5120,2015
5121,1830
5122,1719
5123,1949
5124,2112
5125,1865
5126,1644
5127,1794
5128,2075
5129,1873
5130,1647
5131,1753
5132,2064
5133,1946
5134,1686
5135,1700
5136,2027
5137,2015
5138,1771
5139,1715
5140,2004
5141,2065
5142,1814
5143,1709
5144,1973
5145,2103
5146,1856
5147,1718
5148,1958
5149,2152
5150,1943
5151,1766
5152,1930
5153,2182
5154,2011
5155,1802
5156,1921
5157,2224
5158,2127
5159,1909
5160,1957
5161,2262
5162,2207
5163,1984
5164,1989
5165,2307
5166,2311
5167,2107
5168,2080
5169,2389
5170,2485
5171,2304
5172,2224
5173,2491
5174,2672
5175,2451
5176,2303
5177,2517
5178,2790
5179,2593
5180,2389
5181,2433
5182,2705
5183,2498
5184,2174
5185,2127
5186,2352
5187,2253
5188,1927
5189,1798
5190,1995
5191,1947
5192,1654
5193,1517
5194,1751
5195,1840
5196,1535
5197,1360
5198,1581
5199,1766
5200,1520
5201,1326
5202,1483
5203,1701
5204,1525
5205,1314
5206,1426
5207,1726
5208,1584
5209,1341
5210,1390
5211,1713
5212,1656
5213,1406
5214,1372
5215,1669
5216,1669
5217,1441
5218,1378
5219,1653
5220,1699
5221,1483
5222,1390
5223,1651
5224,1827
5225,1595
5226,1385
5227,1559
5228,1833
5229,1648
5230,1419
5231,1520
5232,1802
5233,1687
5234,1454
5235,1493
5236,1795
5237,1683
5238,1488
5239,1509
5240,1813
5241,1797
5242,1535
5243,1456
5244,1737
5245,1846
5246,1589
5247,1434
5248,1670
5249,1859
5250,1632
5251,1450
5252,1634
5253,1878
5254,1719
5255,1479
5256,1590
5257,1846
5258,1714
5259,1486
5260,1535
5261,1850
5262,1795
5263,1535
5264,1520
5265,1798
5266,1808
5267,1562
5268,1478
5269,1747
5270,1847
5271,1616
5272,1488
5273,1727
5274,1936
5275,1723
5276,1520
5277,1680
5278,1872
5279,1713
5280,1509
5281,1643
5282,1940
5283,1821
5284,1573
5285,1594
5286,1901
5287,1865
5288,1601
5289,1556
5290,1847
5291,1867
5292,1626
5293,1557
5294,1824
5295,1941
5296,1698
5297,1530
5298,1766
5299,1973
5300,1762
5301,1557
5302,1718
5303,1954
5304,1790
5305,1584
5306,1695
5307,1935
5308,1786
5309,1473
5310,1638
5311,1947
5312,1869
5313,1633
5314,1622
5315,1920
5316,1893
5317,1666
5318,1603
5319,1866
5320,1931
5321,1713
5322,1606
5323,1840
5324,1966
5325,1758
5326,1600
5327,1795
5328,1995
5329,1792
5330,1619
5331,1757
5332,2003
5333,1850
5334,1631
5335,1705
5336,2002
5337,1910
5338,1535
5339,1674
5340,1953
5341,1945
5342,1713
5343,1645
5344,1919
5345,2022
5346,1761
5347,1627
5348,1897
5349,2096
5350,1922
5351,1727
5352,1931
5353,2162
5354,1959
5355,1738
5356,1868
5357,2195
5358,2047
5359,1813
5360,1853
5361,2130
5362,1961
5363,1716
5364,1737
5365,2026
5366,2058
5367,1785
5368,1669
5369,1922
5370,1963
5371,1701
5372,1590
5373,1853
5374,1997
5375,1769
5376,1607
5377,1803
5378,1997
5379,1809
5380,1626
5381,1760
5382,2028
5383,1898
5384,1654
5385,1683
5386,1935
5387,1847
5388,1640
5389,1792
5390,2442
5391,2953
5392,3376
5393,4019
5394,4095
5395,4095
5396,3568
5397,2810
5398,2470
5399,2186
5400,1744
5401,1535
5402,1787
5403,2078
5404,1901
5405,1697
5406,1819
5407,2075
5408,1863
5409,1643
5410,1722
5411,2022
5412,1918
5413,1697
5414,1690
5415,1987
5416,2001
5417,1749
5418,1669
5419,1936
5420,2027
5421,1782
5422,1661
5423,1904
5424,2032
5425,1840
5426,1693
5427,1905
5428,2064
5429,1839
5430,1731
5431,1886
5432,2141
5433,1979
5434,1776
5435,1858
5436,2141
5437,2045
5438,1811
5439,1840
5440,2163
5441,2172
5442,1936
5443,1882
5444,2185
5445,2224
5446,2023
5447,1963
5448,2241
5449,2383
5450,2177
5451,2043
5452,2288
5453,2526
5454,2338
5455,2170
5456,2357
5457,2665
5458,2480
5459,2288
5460,2400
5461,2759
5462,2650
5463,2367
5464,2342
5465,2609
5466,2461
5467,2176
5468,2095
5469,2303
5470,2243
5471,1918
5472,1749
5473,1931
5474,2027
5475,1715
5476,1503
5477,1657
5478,1825
5479,1584
5480,1381
5481,1520
5482,1786
5483,1578
5484,1367
5485,1456
5486,1748
5487,1595
5488,1351
5489,1376
5490,1689
5491,1659
5492,1398
5493,1354
5494,1651
5495,1712
5496,1451
5497,1358
5498,1641
5499,1762
5500,1494
5501,1355
5502,1591
5503,1811
5504,1595
5505,1404
5506,1566
5507,1808
5508,1629
5509,1431
5510,1535
5511,1861
5512,1669
5513,1451
5514,1506
5515,1805
5516,1687
5517,1478
5518,1490
5519,1815
5520,1801
5521,1557
5522,1488
5523,1751
5524,1838
5525,1593
5526,1461
5527,1687
5528,1841
5529,1616
5530,1456
5531,1633
5532,1879
5533,1730
5534,1505
5535,1584
5536,1888
5537,1767
5538,1502
5539,1507
5540,1808
5541,1789
5542,1531
5543,1503
5544,1809
5545,1860
5546,1600
5547,1490
5548,1763
5549,1891
5550,1662
5551,1506
5552,1724
5553,1926
5554,1711
5555,1514
5556,1663
5557,1900
5558,1744
5559,1556
5560,1651
5561,1917
5562,1794
5563,1571
5564,1593
5565,1886
5566,1872
5567,1602
5568,1535
5569,1818
5570,1888
5571,1642
5572,1535
5573,1790
5574,1922
5575,1682
5576,1520
5577,1748
5578,1949
5579,1731
5580,1535
5581,1716
5582,1950
5583,1773
5584,1578
5585,1681
5586,1953
5587,1770
5588,1574
5589,1638
5590,1955
5591,1874
5592,1647
5593,1628
5594,1918
5595,1905
5596,1668
5597,1603
5598,1853
5599,1918
5600,1653
5601,1567
5602,1821
5603,1985
5604,1761
5605,1596
5606,1767
5607,1971
5608,1759
5609,1575
5610,1685
5611,1943
5612,1794
5613,1599
5614,1664
5615,1974
5616,1915
5617,1664
5618,1633
5619,1920
5620,1963
5621,1707
5622,1618
5623,1909
5624,2001
5625,1744
5626,1616
5627,1871
5628,2091
5629,1887
5630,1741
5631,1911
5632,2131
5633,1923
5634,1746
5635,1872
5636,2174
5637,2055
5638,1817
5639,1815
5640,2063
5641,2000
5642,1747
5643,1701
5644,2000
5645,2035
5646,1701
5647,1618
5648,1886
5649,2000
5650,1745
5651,1584
5652,1811
5653,1970
5654,1765
5655,1599
5656,1783
5657,1991
5658,1802
5659,1621
5660,1749
5661,2029
5662,1899
5663,1639
5664,1633
5665,1870
5666,1880
5667,1786
5668,2046
5669,2833
5670,3601
5671,4011
5672,4095
5673,4095
5674,3978
5675,3024
5676,2346
5677,2112
5678,1979
5679,1700
5680,1599
5681,1826
5682,2083
5683,1904
5684,1698
5685,1785
5686,2064
5687,1966
5688,1706
5689,1697
5690,2013
5691,1942
5692,1695
5693,1677
5694,1974
5695,1971
5696,1749
5697,1680
5698,1940
5699,2000
5700,1785
5701,1676
5702,1919
5703,2126
5704,1911
5705,1712
5706,1872
5707,2112
5708,1940
5709,1729
5710,1842
5711,2160
5712,1994
5713,1750
5714,1821
5715,2174
5716,2112
5717,1874
5718,1855
5719,2161
5720,2160
5721,1965
5722,1926
5723,2213
5724,2319
5725,2082
5726,1965
5727,2245
5728,2442
5729,2235
5730,2096
5731,2314
5732,2619
5733,2439
5734,2237
5735,2359
5736,2671
5737,2512
5738,2332
5739,2416
5740,2717
5741,2612
5742,2368
5743,2302
5744,2543
5745,2494
5746,2161
5747,1987
5748,2170
5749,2193
5750,1866
5751,1659
5752,1833
5753,1935
5754,1648
5755,1434
5756,1582
5757,1807
5758,1599
5759,1360
5760,1450
5761,1712
5762,1557
5763,1335
5764,1392
5765,1690
5766,1626
5767,1360
5768,1338
5769,1651
5770,1673
5771,1423
5772,1328
5773,1613
5774,1681
5775,1466
5776,1362
5777,1594
5778,1698
5779,1488
5780,1342
5781,1535
5782,1781
5783,1607
5784,1385
5785,1495
5786,1790
5787,1693
5788,1450
5789,1475
5790,1779
5791,1749
5792,1490
5793,1454
5794,1767
5795,1755
5796,1531
5797,1474
5798,1723
5799,1719
5800,1515
5801,1469
5802,1741
5803,1856
5804,1641
5805,1469
5806,1660
5807,1857
5808,1680
5809,1481
5810,1588
5811,1841
5812,1693
5813,1446
5814,1501
5815,1804
5816,1756
5817,1514
5818,1495
5819,1807
5820,1843
5821,1571
5822,1483
5823,1757
5824,1840
5825,1616
5826,1467
5827,1707
5828,1851
5829,1647
5830,1487
5831,1695
5832,1885
5833,1695
5834,1489
5835,1627
5836,1914
5837,1799
5838,1535
5839,1584
5840,1872
5841,1826
5842,1559
5843,1520
5844,1847
5845,1845
5846,1590
5847,1533
5848,1823
5849,1866
5850,1636
5851,1535
5852,1779
5853,1913
5854,1707
5855,1535
5856,1714
5857,1970
5858,1787
5859,1557
5860,1666
5861,1968
5862,1821
5863,1570
5864,1619
5865,1939
5866,1819
5867,1607
5868,1625
5869,1930
5870,1904
5871,1647
5872,1570
5873,1857
5874,1978
5875,1727
5876,1572
5877,1810
5878,1973
5879,1739
5880,1563
5881,1759
5882,1981
5883,1786
5884,1602
5885,1736
5886,2000
5887,1865
5888,1616
5889,1667
5890,1951
5891,1904
5892,1653
5893,1645
5894,1965
5895,1925
5896,1695
5897,1634
5898,1913
5899,1999
5900,1754
5901,1603
5902,1842
5903,2015
5904,1808
5905,1615
5906,1806
5907,2029
5908,1830
5909,1613
5910,1754
5911,2000
5912,1830
5913,1663
5914,1793
5915,2137
5916,2039
5917,1776
5918,1759
5919,2041
5920,2101
5921,1862
5922,1795
5923,2098
5924,2179
5925,1872
5926,1678
5927,1907
5928,2063
5929,1841
5930,1654
5931,1829
5932,2021
5933,1829
5934,1616
5935,1737
5936,2000
5937,1871
5938,1629
5939,1684
5940,1988
5941,1920
5942,1652
5943,1627
5944,1946
5945,1950
5946,1710
5947,1630
5948,1899
5949,1957
5950,1712
5951,1575
5952,1896
5953,2291
5954,2459
5955,2791
5956,3840
5957,4095
5958,4095
5959,3903
5960,3472
5961,3088
5962,2301
5963,1659
5964,1591
5965,1935
5966,1910
5967,1719
5968,1737
5969,2057
5970,2039
5971,1823
5972,1627
5973,1898
5974,1955
5975,1699
5976,1617
5977,1859
5978,2039
5979,1806
5980,1618
5981,1815
5982,2017
5983,1839
5984,1645
5985,1793
5986,2075
5987,1949
5988,1702
5989,1750
5990,2063
5991,1996
5992,1748
5993,1747
5994,2074
5995,2055
5996,1822
5997,1776
5998,2047
5999,2075
6000,1873
6001,1797
6002,2064
6003,2158
6004,1941
6005,1834
6006,2069
6007,2303
6008,2108
6009,1904
6010,2069
6011,2355
6012,2221
6013,2000
6014,2117
6015,2448
6016,2384
6017,2167
6018,2211
6019,2559
6020,2597
6021,2351
6022,2298
6023,2608
6024,2704
6025,2453
6026,2323
6027,2559
6028,2672
6029,2391
6030,2175
6031,2315
6032,2416
6033,2142
6034,1867
6035,1938
6036,2112
6037,1885
6038,1611
6039,1641
6040,1872
6041,1703
6042,1398
6043,1434
6044,1727
6045,1685
6046,1413
6047,1344
6048,1639
6049,1710
6050,1446
6051,1315
6052,1574
6053,1728
6054,1478
6055,1293
6056,1509
6057,1771
6058,1578
6059,1335
6060,1471
6061,1754
6062,1612
6063,1360
6064,1441
6065,1744
6066,1669
6067,1410
6068,1424
6069,1716
6070,1728
6071,1458
6072,1395
6073,1696
6074,1778
6075,1523
6076,1408
6077,1678
6078,1830
6079,1593
6080,1424
6081,1651
6082,1887
6083,1664
6084,1435
6085,1589
6086,1842
6087,1687
6088,1453
6089,1535
6090,1843
6091,1766
6092,1498
6093,1503
6094,1811
6095,1823
6096,1566
6097,1491
6098,1771
6099,1869
6100,1612
6101,1462
6102,1712
6103,1871
6104,1621
6105,1450
6106,1675
6107,1919
6108,1713
6109,1487
6110,1639
6111,1909
6112,1748
6113,1504
6114,1585
6115,1895
6116,1784
6117,1515
6118,1531
6119,1858
6120,1861
6121,1581
6122,1509
6123,1808
6124,1873
6125,1611
6126,1498
6127,1777
6128,1936
6129,1701
6130,1509
6131,1722
6132,1904
6133,1706
6134,1516
6135,1692
6136,1936
6137,1767
6138,1535
6139,1637
6140,1958
6141,1849
6142,1563
6143,1581
6144,1895
6145,1904
6146,1589
6147,1563
6148,1871
6149,1962
6150,1679
6151,1532
6152,1808
6153,1981
6154,1739
6155,1627
6156,1781
6157,2013
6158,1803
6159,1568
6160,1712
6161,2005
6162,1856
6163,1595
6164,1665
6165,1969
6166,1898
6167,1628
6168,1632
6169,1951
6170,1953
6171,1666
6172,1604
6173,1887
6174,1965
6175,1701
6176,1600
6177,1874
6178,2019
6179,1751
6180,1583
6181,1808
6182,2013
6183,1807
6184,1587
6185,1762
6186,2047
6187,1885
6188,1621
6189,1711
6190,2047
6191,1952
6192,1654
6193,1661
6194,2000
6195,2003
6196,1751
6197,1727
6198,2069
6199,2141
6200,1834
6201,1704
6202,1995
6203,2153
6204,1904
6205,1754
6206,1982
6207,2158
6208,1883
6209,1636
6210,1802
6211,2112
6212,1946
6213,1671
6214,1734
6215,2037
6216,1890
6217,1619
6218,1645
6219,1979
6220,1936
6221,1665
6222,1610
6223,1919
6224,1935
6225,1682
6226,1595
6227,1881
6228,1975
6229,1733
6230,1583
6231,1809
6232,1981
6233,1797
6234,1584
6235,1936
6236,2539
6237,2890
6238,3264
6239,4095
6240,4095
6241,4095
6242,3531
6243,2896
6244,2607
6245,2141
6246,1627
6247,1535
6248,1913
6249,2046
6250,1795
6251,1674
6252,1950
6253,2099
6254,1794
6255,1583
6256,1806
6257,2015
6258,1813
6259,1614
6260,1787
6261,2071
6262,1861
6263,1616
6264,1744
6265,2067
6266,1924
6267,1664
6268,1713
6269,2078
6270,2018
6271,1731
6272,1706
6273,2031
6274,1982
6275,1769
6276,1710
6277,2026
6278,2061
6279,1822
6280,1739
6281,2013
6282,2169
6283,1949
6284,1792
6285,1993
6286,2202
6287,2031
6288,1853
6289,2003
6290,2303
6291,2174
6292,1962
6293,2039
6294,2381
6295,2343
6296,2108
6297,2106
6298,2437
6299,2468
6300,2229
6301,2179
6302,2501
6303,2653
6304,2397
6305,2271
6306,2544
6307,2738
6308,2505
6309,2294
6310,2480
6311,2689
6312,2401
6313,2110
6314,2171
6315,2387
6316,2117
6317,1794
6318,1789
6319,2033
6320,1845
6321,1535
6322,1531
6323,1838
6324,1776
6325,1472
6326,1373
6327,1654
6328,1681
6329,1424
6330,1317
6331,1584
6332,1715
6333,1474
6334,1297
6335,1510
6336,1733
6337,1513
6338,1311
6339,1466
6340,1757
6341,1535
6342,1323
6343,1410
6344,1754
6345,1642
6346,1379
6347,1387
6348,1719
6349,1701
6350,1447
6351,1389
6352,1683
6353,1763
6354,1496
6355,1383
6356,1648
6357,1808
6358,1565
6359,1394
6360,1627
6361,1870
6362,1655
6363,1423
6364,1580
6365,1870
6366,1659
6367,1421
6368,1521
6369,1873
6370,1761
6371,1488
6372,1488
6373,1827
6374,1806
6375,1533
6376,1461
6377,1792
6378,1825
6379,1569
6380,1457
6381,1731
6382,1845
6383,1600
6384,1446
6385,1695
6386,1887
6387,1662
6388,1456
6389,1629
6390,1902
6391,1725
6392,1492
6393,1589
6394,1895
6395,1742
6396,1520
6397,1566
6398,1872
6399,1776
6400,1533
6401,1503
6402,1825
6403,1879
6404,1632
6405,1518
6406,1785
6407,1904
6408,1664
6409,1502
6410,1728
6411,1941
6412,1729
6413,1478
6414,1680
6415,1941
6416,1767
6417,1532
6418,1619
6419,1921
6420,1810
6421,1566
6422,1599
6423,1929
6424,1914
6425,1648
6426,1584
6427,1866
6428,1937
6429,1671
6430,1535
6431,1806
6432,1974
6433,1727
6434,1535
6435,1771
6436,1968
6437,1755
6438,1554
6439,1717
6440,1966
6441,1808
6442,1584
6443,1687
6444,1983
6445,1875
6446,1638
6447,1662
6448,1983
6449,1952
6450,1682
6451,1619
6452,1917
6453,1955
6454,1690
6455,1602
6456,1890
6457,1989
6458,1743
6459,1595
6460,1840
6461,2029
6462,1792
6463,1598
6464,1783
6465,2032
6466,1808
6467,1601
6468,1745
6469,2066
6470,1883
6471,1679
6472,1743
6473,2069
6474,2019
6475,1798
6476,1763
6477,2058
6478,2032
6479,1813
6480,1767
6481,2069
6482,2165
6483,1904
6484,1728
6485,1925
6486,2023
6487,1847
6488,1686
6489,1856
6490,2038
6491,1813
6492,1623
6493,1746
6494,2011
6495,1847
6496,1639
6497,1691
6498,1977
6499,1840
6500,1648
6501,1679
6502,1989
6503,1947
6504,1715
6505,1662
6506,1951
6507,1970
6508,1692
6509,1535
6510,1813
6511,2088
6512,2181
6513,2496
6514,3379
6515,4095
6516,4095
6517,4007
6518,3770
6519,3445
6520,2489
6521,1855
6522,1706
6523,1974
6524,1864
6525,1674
6526,1711
6527,2039
6528,1986
6529,1748
6530,1686
6531,1962
6532,2002
6533,1776
6534,1648
6535,1869
6536,1973
6537,1763
6538,1633
6539,1855
6540,2064
6541,1870
6542,1680
6543,1806
6544,2113
6545,1911
6546,1692
6547,1757
6548,2062
6549,1938
6550,1738
6551,1757
6552,2090
6553,2043
6554,1800
6555,1744
6556,2058
6557,2127
6558,1872
6559,1775
6560,2042
6561,2182
6562,1945
6563,1802
6564,2032
6565,2265
6566,2081
6567,1895
6568,2038
6569,2332
6570,2134
6571,1971
6572,2103
6573,2467
6574,2375
6575,2174
6576,2191
6577,2495
6578,2403
6579,2222
6580,2247
6581,2585
6582,2628
6583,2399
6584,2294
6585,2559
6586,2685
6587,2416
6588,2192
6589,2320
6590,2463
6591,2163
6592,1887
6593,1953
6594,2169
6595,1921
6596,1615
6597,1612
6598,1867
6599,1761
6600,1474
6601,1434
6602,1711
6603,1712
6604,1438
6605,1344
6606,1633
6607,1726
6608,1456
6609,1325
6610,1581
6611,1733
6612,1472
6613,1310
6614,1523
6615,1799
6616,1563
6617,1205
6618,1458
6619,1792
6620,1657
6621,1390
6622,1424
6623,1743
6624,1680
6625,1419
6626,1401
6627,1703
6628,1737
6629,1477
6630,1392
6631,1683
6632,1791
6633,1535
6634,1407
6635,1658
6636,1875
6637,1645
6638,1395
6639,1600
6640,1835
6641,1650
6642,1442
6643,1587
6644,1856
6645,1713
6646,1481
6647,1535
6648,1828
6649,1739
6650,1491
6651,1495
6652,1827
6653,1808
6654,1529
6655,1467
6656,1769
6657,1886
6658,1616
6659,1461
6660,1719
6661,1895
6662,1645
6663,1451
6664,1645
6665,1871
6666,1696
6667,1471
6668,1598
6669,1874
6670,1714
6671,1493
6672,1562
6673,1894
6674,1841
6675,1535
6676,1501
6677,1828
6678,1891
6679,1603
6680,1488
6681,1763
6682,1862
6683,1638
6684,1491
6685,1744
6686,1905
6687,1675
6688,1479
6689,1697
6690,1997
6691,1793
6692,1519
6693,1627
6694,1945
6695,1854
6696,1568
6697,1582
6698,1903
6699,1842
6700,1583
6701,1558
6702,1872
6703,1932
6704,1648
6705,1517
6706,1821
6707,1985
6708,1712
6709,1520
6710,1764
6711,2021
6712,1799
6713,1535
6714,1712
6715,1965
6716,1788
6717,1535
6718,1673
6719,2025
6720,1907
6721,1571
6722,1610
6723,1979
6724,1999
6725,1669
6726,1574
6727,1886
6728,2025
6729,1728
6730,1567
6731,1851
6732,2011
6733,1761
6734,1573
6735,1808
6736,2031
6737,1797
6738,1563
6739,1730
6740,2055
6741,1904
6742,1595
6743,1670
6744,2037
6745,1989
6746,1661
6747,1629
6748,1991
6749,2065
6750,1719
6751,1607
6752,1964
6753,2138
6754,1850
6755,1691
6756,1969
6757,2147
6758,1877
6759,1671
6760,1927
6761,2192
6762,1993
6763,1717
6764,1847
6765,2137
6766,1952
6767,1642
6768,1715
6769,2096
6770,2022
6771,1662
6772,1634
6773,1982
6774,2000
6775,1666
6776,1578
6777,1909
6778,2062
6779,1770
6780,1593
6781,1859
6782,2047
6783,1792
6784,1584
6785,1813
6786,2038
6787,1823
6788,1577
6789,1725
6790,1984
6791,1895
6792,1841
6793,2326
6794,3297
6795,4019
6796,4095
6797,4095
6798,4095
6799,3760
6800,2678
6801,2060
6802,1990
6803,1931
6804,1632
6805,1535
6806,1887
6807,2118
6808,1860
6809,1631
6810,1833
6811,2083
6812,1845
6813,1579
6814,1744
6815,2043
6816,1898
6817,1604
6818,1703
6819,2031
6820,1905
6821,1616
6822,1667
6823,2039
6824,1987
6825,1687
6826,1654
6827,2014
6828,2078
6829,1757
6830,1645
6831,1967
6832,2159
6833,1878
6834,1679
6835,1925
6836,2192
6837,1959
6838,1714
6839,1899
6840,2215
6841,2071
6842,1791
6843,1902
6844,2250
6845,2142
6846,1878
6847,1945
6848,2299
6849,2251
6850,1991
6851,2001
6852,2358
6853,2367
6854,2138
6855,2081
6856,2416
6857,2543
6858,2320
6859,2208
6860,2502
6861,2736
6862,2480
6863,2261
6864,2480
6865,2768
6866,2551
6867,2251
6868,2323
6869,2603
6870,2393
6871,2030
6872,1990
6873,2193
6874,2094
6875,1714
6876,1643
6877,1917
6878,1869
6879,1530
6880,1395
6881,1675
6882,1757
6883,1467
6884,1305
6885,1554
6886,1535
6887,1445
6888,1271
6889,1488
6890,1673
6891,1456
6892,1278
6893,1458
6894,1731
6895,1533
6896,1300
6897,1392
6898,1744
6899,1623
6900,1351
6901,1357
6902,1659
6903,1639
6904,1404
6905,1388
6906,1660
6907,1701
6908,1438
6909,1337
6910,1605
6911,1747
6912,1501
6913,1357
6914,1600
6915,1779
6916,1598
6917,1407
6918,1572
6919,1777
6920,1575
6921,1405
6922,1535
6923,1878
6924,1703
6925,1419
6926,1463
6927,1766
6928,1737
6929,1486
6930,1457
6931,1755
6932,1804
6933,1535
6934,1427
6935,1694
6936,1777
6937,1583
6938,1455
6939,1707
6940,1856
6941,1635
6942,1457
6943,1658
6944,1903
6945,1680
6946,1447
6947,1569
6948,1831
6949,1730
6950,1487
6951,1520
6952,1846
6953,1753
6954,1520
6955,1518
6956,1820
6957,1811
6958,1570
6959,1494
6960,1782
6961,1882
6962,1627
6963,1482
6964,1725
6965,1879
6966,1662
6967,1488
6968,1697
6969,1884
6970,1695
6971,1524
6972,1663
6973,1981
6974,1809
6975,1535
6976,1572
6977,1891
6978,1843
6979,1591
6980,1573
6981,1845
6982,1782
6983,1590
6984,1563
6985,1859
6986,1947
6987,1692
6988,1535
6989,1791
6990,1956
6991,1742
6992,1559
6993,1739
6994,1981
6995,1803
6996,1577
6997,1679
6998,1966
6999,1807
7000,1605
7001,1678
7002,1968
7003,1845
7004,1605
7005,1607
7006,1934
7007,1932
7008,1664
7009,1591
7010,1893
7011,1978
7012,1712
7013,1579
7014,1826
7015,1993
7016,1759
7017,1583
7018,1777
7019,2021
7020,1835
7021,1617
7022,1748
7023,1995
7024,1808
7025,1627
7026,1719
7027,2026
7028,1866
7029,1638
7030,1651
7031,1984
7032,1998
7033,1730
7034,1661
7035,1942
7036,2036
7037,1795
7038,1693
7039,1970
7040,2176
7041,1920
7042,1705
7043,1893
7044,2110
7045,1953
7046,1809
7047,1947
7048,2176
7049,1936
7050,1712
7051,1794
7052,2132
7053,2003
7054,1730
7055,1690
7056,1973
7057,1983
7058,1715
7059,1637
7060,1899
7061,1959
7062,1707
7063,1601
7064,1858
7065,2013
7066,1774
7067,1600
7068,1808
7069,2027
7070,1840
7071,1635
7072,1774
7073,2006
7074,1778
7075,1580
7076,1817
7077,2439
7078,2739
7079,3102
7080,3919
7081,4095
7082,4095
7083,3824
7084,3118
7085,2775
7086,2303
7087,1713
7088,1499
7089,1838
7090,2090
7091,1889
7092,1709
7093,1894
7094,2096
7095,1867
7096,1633
7097,1765
7098,2037
7099,1894
7100,1659
7101,1715
7102,2027
7103,1937
7104,1703
7105,1710
7106,2032
7107,1987
7108,1740
7109,1682
7110,1979
7111,2055
7112,1836
7113,1723
7114,1969
7115,2146
7116,1904
7117,1719
7118,1923
7119,2170
7120,1989
7121,1769
7122,1904
7123,2181
7124,2055
7125,1840
7126,1913
7127,2207
7128,2078
7129,1872
7130,1925
7131,2247
7132,2174
7133,1957
7134,1962
7135,2309
7136,2398
7137,2151
7138,2060
7139,2358
7140,2556
7141,2345
7142,2182
7143,2399
7144,2647
7145,2455
7146,2272
7147,2437
7148,2725
7149,2559
7150,2347
7151,2413
7152,2679
7153,2480
7154,2198
7155,2158
7156,2385
7157,2203
7158,1881
7159,1779
7160,2031
7161,2019
7162,1686
7163,1511
7164,1729
7165,1866
7166,1589
7167,1355
7168,1553
7169,1781
7170,1553
7171,1315
7172,1450
7173,1707
7174,1580
7175,1346
7176,1410
7177,1722
7178,1535
7179,1321
7180,1360
7181,1715
7182,1684
7183,1399
7184,1338
7185,1664
7186,1762
7187,1466
7188,1328
7189,1599
7190,1780
7191,1535
7192,1345
7193,1558
7194,1818
7195,1625
7196,1394
7197,1535
7198,1810
7199,1686
7200,1444
7201,1517
7202,1853
7203,1741
7204,1462
7205,1451
7206,1786
7207,1809
7208,1520
7209,1441
7210,1751
7211,1854
7212,1600
7213,1451
7214,1694
7215,1836
7216,1611
7217,1427
7218,1653
7219,1898
7220,1696
7221,1446
7222,1582
7223,1871
7224,1757
7225,1466
7226,1504
7227,1873
7228,1862
7229,1526
7230,1462
7231,1803
7232,1869
7233,1564
7234,1451
7235,1786
7236,1966
7237,1691
7238,1467
7239,1710
7240,1877
7241,1642
7242,1438
7243,1664
7244,1954
7245,1746
7246,1494
7247,1638
7248,1943
7249,1797
7250,1495
7251,1554
7252,1925
7253,1902
7254,1585
7255,1523
7256,1856
7257,1851
7258,1589
7259,1515
7260,1851
7261,1942
7262,1661
7263,1494
7264,1776
7265,2005
7266,1755
7267,1498
7268,1702
7269,2005
7270,1838
7271,1501
7272,1652
7273,2000
7274,1907
7275,1588
7276,1615
7277,1958
7278,1941
7279,1626
7280,1567
7281,1904
7282,1968
7283,1673
7284,1553
7285,1873
7286,2017
7287,1745
7288,1570
7289,1837
7290,1999
7291,1759
7292,1535
7293,1781
7294,2045
7295,1837
7296,1571
7297,1712
7298,2047
7299,1915
7300,1599
7301,1623
7302,2015
7303,1993
7304,1659
7305,1601
7306,1935
7307,2019
7308,1714
7309,1590
7310,1914
7311,2047
7312,1771
7313,1575
7314,1843
7315,2095
7316,1862
7317,1646
7318,1889
7319,2214
7320,1998
7321,1670
7322,1795
7323,2175
7324,2087
7325,1762
7326,1778
7327,2126
7328,2065
7329,1706
7330,1647
7331,1988
7332,2047
7333,1744
7334,1610
7335,1915
7336,2010
7337,1713
7338,1529
7339,1808
7340,2042
7341,1782
7342,1530
7343,1749
7344,2069
7345,1859
7346,1535
7347,1675
7348,2021
7349,1910
7350,1594
7351,1625
7352,1984
7353,1934
7354,1594
7355,1629
7356,2223
7357,2640
7358,2896
7359,3477
7360,4095
7361,4095
7362,3927
7363,3152
7364,2818
7365,2483
7366,1863
7367,1475
7368,1700
7369,2031
7370,1872
7371,1648
7372,1762
7373,2103
7374,1967
7375,1629
7376,1658
7377,2013
7378,1927
7379,1632
7380,1622
7381,1978
7382,1983
7383,1681
7384,1603
7385,1929
7386,2083
7387,1790
7388,1611
7389,1881
7390,2125
7391,1872
7392,1617
7393,1834
7394,2135
7395,1953
7396,1667
7397,1793
7398,2100
7399,1968
7400,1711
7401,1803
7402,2159
7403,2096
7404,1805
7405,1802
7406,2173
7407,2247
7408,1915
7409,1808
7410,2144
7411,2288
7412,2007
7413,1873
7414,2190
7415,2449
7416,2219
7417,1994
7418,2228
7419,2547
7420,2384
7421,2135
7422,2295
7423,2624
7424,2522
7425,2270
7426,2352
7427,2710
7428,2629
7429,2336
7430,2305
7431,2640
7432,2605
7433,2221
7434,2046
7435,2299
7436,2341
7437,1955
7438,1713
7439,1904
7440,2042
7441,1730
7442,1447
7443,1627
7444,1884
7445,1659
7446,1353
7447,1461
7448,1783
7449,1651
7450,1332
7451,1371
7452,1738
7453,1671
7454,1345
7455,1323
7456,1672
7457,1659
7458,1362
7459,1296
7460,1639
7461,1721
7462,1430
7463,1286
7464,1583
7465,1778
7466,1515
7467,1296
7468,1535
7469,1816
7470,1593
7471,1315
7472,1469
7473,1786
7474,1648
7475,1360
7476,1439
7477,1797
7478,1759
7479,1439
7480,1417
7481,1785
7482,1815
7483,1493
7484,1397
7485,1728
7486,1812
7487,1535
7488,1413
7489,1711
7490,1841
7491,1584
7492,1391
7493,1641
7494,1894
7495,1679
7496,1418
7497,1583
7498,1899
7499,1735
7500,1429
7501,1504
7502,1845
7503,1776
7504,1458
7505,1451
7506,1817
7507,1861
7508,1535
7509,1441
7510,1776
7511,1887
7512,1597
7513,1431
7514,1722
7515,1904
7516,1637
7517,1430
7518,1680
7519,1876
7520,1643
7521,1461
7522,1594
7523,1889
7524,1728
7525,1456
7526,1535
7527,1902
7528,1806
7529,1498
7530,1501
7531,1878
7532,1922
7533,1600
7534,1501
7535,1825
7536,1935
7537,1631
7538,1472
7539,1781
7540,1994
7541,1724
7542,1501
7543,1734
7544,1962
7545,1747
7546,1504
7547,1680
7548,1997
7549,1814
7550,1523
7551,1623
7552,1983
7553,1904
7554,1586
7555,1583
7556,1932
7557,1939
7558,1629
7559,1535
7560,1893
7561,2021
7562,1717
7563,1535
7564,1835
7565,1947
7566,1703
7567,1534
7568,1798
7569,2032
7570,1793
7571,1535
7572,1722
7573,2041
7574,1877
7575,1584
7576,1680
7577,2018
7578,1946
7579,1633
7580,1635
7581,1985
7582,1990
7583,1678
7584,1602
7585,1930
7586,2038
7587,1762
7588,1616
7589,1894
7590,2018
7591,1761
7592,1584
7593,1836
7594,2032
7595,1808
7596,1600
7597,1806
7598,2096
7599,1893
7600,1600
7601,1705
7602,2068
7603,2006
7604,1734
7605,1773
7606,2107
7607,2097
7608,1766
7609,1705
7610,2066
7611,2203
7612,1919
7613,1776
7614,2017
7615,2110
7616,1809
7617,1623
7618,1876
7619,2103
7620,1854
7621,1605
7622,1776
7623,2093
7624,1925
7625,1618
7626,1693
7627,1978
7628,1891
7629,1616
7630,1642
7631,2000
7632,1982
7633,1674
7634,1606
7635,1933
7636,1994
7637,1719
7638,1597
7639,1856
7640,1941
7641,1680
7642,1567
7643,2013
7644,2593
7645,2832
7646,3195
7647,4095
7648,4095
7649,4095
7650,3578
7651,3010
7652,2707
7653,2101
7654,1571
7655,1575
7656,1970
7657,1993
7658,1738
7659,1707
7660,2000
7661,1998
7662,1710
7663,1597
7664,1923
7665,2092
7666,1866
7667,1591
7668,1841
7669,2111
7670,1865
7671,1600
7672,1772
7673,2031
7674,1866
7675,1609
7676,1741
7677,2094
7678,2009
7679,1718
7680,1744
7681,2089
7682,2026
7683,1745
7684,1715
7685,2073
7686,2100
7687,1812
7688,1721
7689,2039
7690,2215
7691,1948
7692,1776
7693,2033
7694,2299
7695,2081
7696,1814
7697,2008
7698,2307
7699,2167
7700,1905
7701,2032
7702,2398
7703,2314
7704,2037
7705,2087
7706,2467
7707,2497
7708,2224
7709,2192
7710,2539
7711,2670
7712,2400
7713,2288
7714,2583
7715,2723
7716,2474
7717,2288
7718,2498
7719,2641
7720,2351
7721,2096
7722,2237
7723,2450
7724,2163
7725,1805
7726,1839
7727,2098
7728,1903
7729,1634
7730,1523
7731,1835
7732,1758
7733,1422
7734,1358
7735,1749
7736,1775
7737,1453
7738,1296
7739,1569
7740,1737
7741,1471
7742,1277
7743,1520
7744,1767
7745,1535
7746,1296
7747,1472
7748,1729
7749,1535
7750,1299
7751,1439
7752,1776
7753,1646
7754,1345
7755,1379
7756,1739
7757,1729
7758,1422
7759,1372
7760,1702
7761,1758
7762,1459
7763,1339
7764,1667
7765,1808
7766,1554
7767,1370
7768,1611
7769,1805
7770,1594
7771,1401
7772,1616
7773,1887
7774,1682
7775,1422
7776,1535
7777,1891
7778,1784
7779,1466
7780,1485
7781,1840
7782,1822
7783,1514
7784,1463
7785,1808
7786,1856
7787,1535
7788,1425
7789,1733
7790,1889
7791,1617
7792,1425
7793,1674
7794,1927
7795,1699
7796,1441
7797,1621
7798,1878
7799,1708
7800,1458
7801,1601
7802,1904
7803,1754
7804,1472
7805,1535
7806,1919
7807,1817
7808,1505
7809,1471
7810,1836
7811,1910
7812,1600
7813,1472
7814,1769
7815,1906
7816,1639
7817,1481
7818,1746
7819,1982
7820,1749
7821,1488
7822,1671
7823,1939
7824,1769
7825,1509
7826,1648
7827,1932
7828,1786
7829,1531
7830,1607
7831,1951
7832,1872
7833,1580
7834,1535
7835,1907
7836,1948
7837,1648
7838,1521
7839,1843
7840,2014
7841,1723
7842,1526
7843,1778
7844,2013
7845,1772
7846,1530
7847,1726
7848,2022
7849,1840
7850,1557
7851,1686
7852,1984
7853,1857
7854,1579
7855,1635
7856,1971
7857,1895
7858,1621
7859,1603
7860,1942
7861,1973
7862,1677
7863,1559
7864,1886
7865,2055
7866,1759
7867,1558
7868,1821
7869,2046
7870,1803
7871,1564
7872,1758
7873,2034
7874,1839
7875,1568
7876,1712
7877,2037
7878,1926
7879,1616
7880,1645
7881,2011
7882,1996
7883,1678
7884,1615
7885,2002
7886,1981
7887,1701
7888,1616
7889,1981
7890,2158
7891,1873
7892,1683
7893,1931
7894,2169
7895,1931
7896,1690
7897,1901
7898,2222
7899,2047
7900,1709
7901,1783
7902,2142
7903,2034
7904,1682
7905,1682
7906,2015
7907,1968
7908,1663
7909,1610
7910,1957
7911,2007
7912,1633
7913,1535
7914,1885
7915,2080
7916,1774
7917,1535
7918,1805
7919,2073
7920,1822
7921,1535
7922,1744
7923,2077
7924,1901
7925,1535
7926,1610
7927,1979
7928,2000
7929,1889
7930,2282
7931,3266
7932,4095
7933,4095
7934,4021
7935,4095
7936,3626
7937,2559
7938,1923
7939,1923
7940,2017
7941,1728
7942,1535
7943,1839
7944,2123
7945,1872
7946,1590
7947,1759
7948,2094
7949,1905
7950,1562
7951,1648
7952,2018
7953,1940
7954,1605
7955,1622
7956,2002
7957,1957
7958,1632
7959,1594
7960,1974
7961,2061
7962,1739
7963,1600
7964,1929
7965,2128
7966,1822
7967,1600
7968,1873
7969,2167
7970,1898
7971,1616
7972,1817
7973,2190
7974,2009
7975,1675
7976,1793
7977,2191
7978,2126
7979,1777
7980,1795
7981,2215
7982,2242
7983,1903
7984,1836
7985,2240
7986,2353
7987,2037
7988,1904
7989,2258
7990,2432
7991,2166
7992,2000
7993,2317
7994,2620
7995,2384
7996,2125
7997,2352
7998,2711
7999,2535
8000,2237
8001,2367
8002,2773
8003,2667
8004,2251
8005,2207
8006,2523
8007,2453
8008,2027
8009,1867
8010,2176
8011,2209
8012,1776
8013,1535
8014,1809
8015,1962
8016,1616
8017,1335
8018,1584
8019,1808
8020,1527
8021,1238
8022,1438
8023,1767
8024,1569
8025,1234
8026,1344
8027,1743
8028,1634
8029,1267
8030,1283
8031,1706
8032,1707
8033,1337
8034,1264
8035,1648
8036,1775
8037,1411
8038,1247
8039,1589
8040,1807
8041,1491
8042,1263
8043,1555
8044,1858
8045,1586
8046,1275
8047,1474
8048,1819
8049,1638
8050,1309
8051,1427
8052,1851
8053,1755
8054,1382
8055,1387
8056,1795
8057,1815
8058,1434
8059,1354
8060,1744
8061,1869
8062,1501
8063,1341
8064,1694
8065,1916
8066,1600
8067,1362
8068,1632
8069,1879
8070,1610
8071,1342
8072,1567
8073,1935
8074,1730
8075,1370
8076,1488
8077,1893
8078,1793
8079,1410
8080,1430
8081,1853
8082,1869
8083,1487
8084,1397
8085,1795
8086,1925
8087,1535
8088,1434
8089,1742
8090,1927
8091,1610
8092,1371
8093,1673
8094,1971
8095,1683
8096,1382
8097,1611
8098,1975
8099,1787
8100,1423
8101,1535
8102,1961
8103,1887
8104,1487
8105,1489
8106,1920
8107,1921
8108,1523
8109,1456
8110,1862
8111,1951
8112,1590
8113,1441
8114,1803
8115,2015
8116,1680
8117,1443
8118,1729
8119,2021
8120,1753
8121,1455
8122,1677
8123,2011
8124,1811
8125,1475
8126,1616
8127,2021
8128,1917
8129,1520
8130,1535
8131,1970
8132,1978
8133,1585
8134,1505
8135,1923
8136,2059
8137,1664
8138,1487
8139,1860
8140,2093
8141,1746
8142,1486
8143,1777
8144,2077
8145,1810
8146,1514
8147,1742
8148,2097
8149,1872
8150,1516
8151,1651
8152,2070
8153,1963
8154,1579
8155,1616
8156,2059
8157,2063
8158,1677
8159,1637
8160,2079
8161,2189
8162,1785
8163,1686
8164,2011
8165,2224
8166,1909
8167,1693
8168,1982
8169,2234
8170,1893
8171,1574
8172,1799
8173,2163
8174,1942
8175,1578
8176,1687
8177,2093
8178,1966
8179,1557
8180,1593
8181,2014
8182,1997
8183,1609
8184,1535
8185,1958
8186,2029
8187,1661
8188,1517
8189,1898
8190,2093
8191,1746
8192,1518
8193,1815
8194,2064
8195,1747
8196,1497
8197,1898
8198,2602
8199,2899
8200,3129
8201,4079
8202,4095
8203,4095
8204,3444
8205,2896
8206,2716
8207,2177
8208,1562
8209,1488
8210,1979
8211,2081
8212,1678
8213,1535
8214,1969
8215,2160
8216,1758
8217,1502
8218,1854
8219,2146
8220,1826
8221,1513
8222,1776
8223,2114
8224,1854
8225,1517
8226,1726
8227,2161
8228,1991
8229,1579
8230,1647
8231,2125
8232,2107
8233,1680
8234,1642
8235,2109
8236,2160
8237,1739
8238,1610
8239,2032
8240,2203
8241,1824
8242,1629
8243,2000
8244,2308
8245,1989
8246,1690
8247,1975
8248,2338
8249,2086
8250,1732
8251,1931
8252,2367
8253,2215
8254,1835
8255,1955
8256,2446
8257,2401
8258,1990
8259,1996
8260,2453
8261,2544
8262,2166
8263,2077
8264,2527
8265,2759
8266,2378
8267,2160
8268,2529
8269,2789
8270,2437
8271,2158
8272,2443
8273,2783
8274,2435
8275,1991
8276,2103
8277,2454
8278,2201
8279,1721
8280,1745
8281,2132
8282,1987
8283,1506
8284,1451
8285,1860
8286,1835
8287,1408
8288,1286
8289,1703
8290,1861
8291,1440
8292,1216
8293,1586
8294,1874
8295,1535
8296,1233
8297,1502
8298,1805
8299,1535
8300,1203
8301,1433
8302,1866
8303,1671
8304,1264
8305,1370
8306,1847
8307,1771
8308,1349
8309,1333
8310,1809
8311,1814
8312,1402
8313,1321
8314,1755
8315,1910
8316,1510
8317,1298
8318,1723
8319,1975
8320,1615
8321,1322
8322,1639
8323,2037
8324,1698
8325,1345
8326,1570
8327,1987
8328,1796
8329,1392
8330,1498
8331,1965
8332,1888
8333,1467
8334,1450
8335,1898
8336,1863
8337,1457
8338,1392
8339,1830
8340,1957
8341,1557
8342,1391
8343,1785
8344,2003
8345,1646
8346,1371
8347,1695
8348,2047
8349,1744
8350,1392
8351,1600
8352,2014
8353,1839
8354,1435
8355,1535
8356,1968
8357,1861
8358,1452
8359,1470
8360,1937
8361,1967
8362,1535
8363,1424
8364,1859
8365,2017
8366,1631
8367,1442
8368,1827
8369,2000
8370,1646
8371,1399
8372,1731
8373,2063
8374,1765
8375,1431
8376,1663
8377,2091
8378,1886
8379,1475
8380,1595
8381,2011
8382,1883
8383,1495
8384,1535
8385,2010
8386,2026
8387,1595
8388,1491
8389,1938
8390,2099
8391,1692
8392,1479
8393,1855
8394,2085
8395,1722
8396,1459
8397,1788
8398,2121
8399,1820
8400,1467
8401,1696
8402,2107
8403,1920
8404,1518
8405,1631
8406,2064
8407,1935
8408,1535
8409,1576
8410,2057
8411,2059
8412,1657
8413,1610
8414,2080
8415,2226
8416,1807
8417,1591
8418,1979
8419,2234
8420,1884
8421,1635
8422,1977
8423,2281
8424,1932
8425,1555
8426,1771
8427,2146
8428,1919
8429,1535
8430,1677
8431,2098
8432,1967
8433,1535
8434,1559
8435,2003
8436,2021
8437,1593
8438,1493
8439,1936
8440,2075
8441,1685
8442,1493
8443,1858
8444,2032
8445,1709
8446,1517
8447,1861
8448,2157
8449,1815
8450,1456
8451,1712
8452,2229
8453,2349
8454,2465
8455,3264
8456,4095
8457,4095
8458,3947
8459,3509
8460,3383
8461,2595
8462,1706
8463,1434
8464,1882
8465,2064
8466,1702
8467,1556
8468,1962
8469,2111
8470,1734
8471,1497
8472,1857
8473,2192
8474,1851
8475,1489
8476,1744
8477,2149
8478,1931
8479,1535
8480,1680
8481,2097
8482,1949
8483,1564
8484,1631
8485,2092
8486,2062
8487,1646
8488,1586
8489,2047
8490,2143
8491,1771
8492,1627
8493,2019
8494,2201
8495,1837
8496,1627
8497,1974
8498,2262
8499,1961
8500,1681
8501,1949
8502,2291
8503,2063
8504,1719
8505,1909
8506,2366
8507,2240
8508,1854
8509,1925
8510,2383
8511,2331
8512,1985
8513,2013
8514,2522
8515,2673
8516,2273
8517,2135
8518,2553
8519,2798
8520,2416
8521,2163
8522,2477
8523,2768
8524,2463
8525,2155
8526,2386
8527,2771
8528,2481
8529,2065
8530,2142
8531,2448
8532,2204
8533,1761
8534,1757
8535,2125
8536,2001
8537,1525
8538,1423
8539,1831
8540,1856
8541,1447
8542,1286
8543,1697
8544,1889
8545,1465
8546,1209
8547,1555
8548,1840
8549,1511
8550,1218
8551,1479
8552,1798
8553,1520
8554,1178
8555,1347
8556,1791
8557,1664
8558,1255
8559,1300
8560,1767
8561,1757
8562,1277
8563,1271
8564,1729
8565,1775
8566,1391
8567,1237
8568,1691
8569,1823
8570,1455
8571,1247
8572,1629
8573,1963
8574,1642
8575,1296
8576,1535
8577,1947
8578,1712
8579,1313
8580,1467
8581,1885
8582,1742
8583,1361
8584,1423
8585,1887
8586,1855
8587,1430
8588,1370
8589,1781
8590,1856
8591,1461
8592,1332
8593,1763
8594,1987
8595,1618
8596,1367
8597,1696
8598,1955
8599,1643
8600,1358
8601,1635
8602,1998
8603,1746
8604,1356
8605,1511
8606,1943
8607,1810
8608,1407
8609,1478
8610,1921
8611,1877
8612,1474
8613,1441
8614,1874
8615,1915
8616,1514
8617,1391
8618,1822
8619,2034
8620,1648
8621,1397
8622,1729
8623,2012
8624,1699
8625,1399
8626,1654
8627,1975
8628,1726
8629,1374
8630,1574
8631,1997
8632,1845
8633,1451
8634,1533
8635,1990
8636,1953
8637,1553
8638,1501
8639,1910
8640,1920
8641,1558
8642,1459
8643,1895
8644,2074
8645,1650
8646,1412
8647,1777
8648,2102
8649,1777
8650,1460
8651,1728
8652,2065
8653,1808
8654,1429
8655,1639
8656,2079
8657,1901
8658,1473
8659,1567
8660,2014
8661,1965
8662,1535
8663,1510
8664,1952
8665,2067
8666,1658
8667,1504
8668,1904
8669,2057
8670,1680
8671,1487
8672,1859
8673,2099
8674,1759
8675,1475
8676,1776
8677,2166
8678,1905
8679,1535
8680,1712
8681,2106
8682,1931
8683,1535
8684,1598
8685,2128
8686,2115
8687,1744
8688,1706
8689,2123
8690,2123
8691,1734
8692,1648
8693,2100
8694,2278
8695,1862
8696,1607
8697,1921
8698,2199
8699,1859
8700,1535
8701,1824
8702,2192
8703,1919
8704,1520
8705,1699
8706,2090
8707,1886
8708,1510
8709,1617
8710,2073
8711,1971
8712,1535
8713,1565
8714,2045
8715,2090
8716,1645
8717,1498
8718,1913
8719,2110
8720,1711
8721,1457
8722,1795
8723,2122
8724,1979
8725,2059
8726,2839
8727,4095
8728,4095
8729,4053
8730,4095
8731,4095
8732,3147
8733,2131
8734,1766
8735,1989
8736,1905
8737,1579
8738,1616
8739,2098
8740,2112
8741,1706
8742,1585
8743,1983
8744,2090
8745,1683
8746,1479
8747,1841
8748,2126
8749,1801
8750,1488
8751,1782
8752,2159
8753,1883
8754,1514
8755,1710
8756,2143
8757,1989
8758,1579
8759,1691
8760,2173
8761,2106
8762,1680
8763,1661
8764,2096
8765,2096
8766,1725
8767,1648
8768,2094
8769,2240
8770,1842
8771,1646
8772,2016
8773,2271
8774,1935
8775,1680
8776,2010
8777,2403
8778,2143
8779,1791
8780,2001
8781,2399
8782,2217
8783,1873
8784,2019
8785,2513
8786,2459
8787,2074
8788,2101
8789,2589
8790,2637
8791,2237
8792,2157
8793,2615
8794,2810
8795,2403
8796,2191
8797,2550
8798,2837
8799,2458
8800,2113
8801,2336
8802,2593
8803,2250
8804,1814
8805,1951
8806,2262
8807,1999
8808,1535
8809,1600
8810,2002
8811,1865
8812,1397
8813,1360
8814,1793
8815,1799
8816,1354
8817,1232
8818,1667
8819,1811
8820,1427
8821,1199
8822,1574
8823,1829
8824,1471
8825,1186
8826,1488
8827,1867
8828,1571
8829,1193
8830,1403
8831,1831
8832,1650
8833,1248
8834,1358
8835,1837
8836,1762
8837,1334
8838,1314
8839,1771
8840,1782
8841,1373
8842,1279
8843,1717
8844,1892
8845,1493
8846,1277
8847,1655
8848,1920
8849,1601
8850,1297
8851,1591
8852,1859
8853,1582
8854,1269
8855,1515
8856,1920
8857,1725
8858,1351
8859,1472
8860,1923
8861,1806
8862,1370
8863,1392
8864,1872
8865,1866
8866,1441
8867,1365
8868,1818
8869,1928
8870,1519
8871,1344
8872,1745
8873,1991
8874,1616
8875,1310
8876,1618
8877,1978
8878,1713
8879,1360
8880,1626
8881,1952
8882,1755
8883,1375
8884,1502
8885,1955
8886,1866
8887,1440
8888,1451
8889,1904
8890,1940
8891,1505
8892,1397
8893,1839
8894,1972
8895,1578
8896,1372
8897,1771
8898,2030
8899,1663
8900,1381
8901,1701
8902,2030
8903,1755
8904,1431
8905,1667
8906,1981
8907,1749
8908,1418
8909,1593
8910,2015
8911,1885
8912,1471
8913,1498
8914,1968
8915,1984
8916,1563
8917,1467
8918,1899
8919,2039
8920,1647
8921,1447
8922,1815
8923,2064
8924,1733
8925,1470
8926,1787
8927,2122
8928,1822
8929,1479
8930,1702
8931,2071
8932,1861
8933,1498
8934,1650
8935,2096
8936,1969
8937,1535
8938,1562
8939,2019
8940,2026
8941,1615
8942,1532
8943,1958
8944,2095
8945,1678
8946,1494
8947,1904
8948,2154
8949,1778
8950,1513
8951,1840
8952,2160
8953,1842
8954,1512
8955,1761
8956,2122
8957,1889
8958,1520
8959,1680
8960,2121
8961,1993
8962,1600
8963,1650
8964,2108
8965,2106
8966,1687
8967,1617
8968,2090
8969,2225
8970,1808
8971,1623
8972,2029
8973,2285
8974,1938
8975,1680
8976,1981
8977,2281
8978,1946
8979,1582
8980,1787
8981,2127
8982,1914
8983,1569
8984,1798
8985,2156
8986,2017
8987,1573
8988,1599
8989,2047
8990,2013
8991,1594
8992,1524
8993,1968
8994,2093
8995,1682
8996,1514
8997,1904
8998,2044
8999,1711
9000,1501
9001,1846
9002,2149
9003,1798
9004,1458
9005,1814
9006,2448
9007,2661
9008,2827
9009,3781
9010,4095
9011,4095
9012,3821
9013,3265
9014,3041
9015,2353
9016,1611
9017,1470
9018,1955
9019,2064
9020,1686
9021,1535
9022,1946
9023,2146
9024,1775
9025,1517
9026,1833
9027,2115
9028,1808
9029,1507
9030,1769
9031,2146
9032,1923
9033,1535
9034,1707
9035,2112
9036,1946
9037,1584
9038,1675
9039,2155
9040,2125
9041,1675
9042,1589
9043,2041
9044,2149
9045,1755
9046,1601
9047,2010
9048,2218
9049,1868
9050,1638
9051,1971
9052,2207
9053,1922
9054,1680
9055,1973
9056,2352
9057,2101
9058,1734
9059,1910
9060,2355
9061,2256
9062,1872
9063,1940
9064,2430
9065,2416
9066,2023
9067,1999
9068,2447
9069,2535
9070,2186
9071,2091
9072,2544
9073,2785
9074,2399
9075,2155
9076,2496
9077,2837
9078,2512
9079,2192
9080,2439
9081,2802
9082,2511
9083,2077
9084,2151
9085,2471
9086,2224
9087,1744
9088,1734
9089,2123
9090,1997
9091,1535
9092,1439
9093,1825
9094,1857
9095,1361
9096,1183
9097,1680
9098,1871
9099,1483
9100,1217
9101,1535
9102,1789
9103,1471
9104,1195
9105,1476
9106,1854
9107,1588
9108,1210
9109,1387
9110,1831
9111,1687
9112,1272
9113,1337
9114,1765
9115,1678
9116,1247
9117,1217
9118,1771
9119,1839
9120,1411
9121,1267
9122,1691
9123,1904
9124,1505
9125,1267
9126,1646
9127,1917
9128,1600
9129,1291
9130,1571
9131,1945
9132,1687
9133,1335
9134,1523
9135,1942
9136,1760
9137,1335
9138,1422
9139,1903
9140,1878
9141,1459
9142,1415
9143,1870
9144,1878
9145,1469
9146,1360
9147,1778
9148,1957
9149,1580
9150,1343
9151,1710
9152,1984
9153,1647
9154,1335
9155,1634
9156,2017
9157,1750
9158,1362
9159,1535
9160,1943
9161,1755
9162,1383
9163,1495
9164,1975
9165,1897
9166,1456
9167,1418
9168,1870
9169,1954
9170,1535
9171,1418
9172,1845
9173,1968
9174,1584
9175,1379
9176,1743
9177,2038
9178,1705
9179,1389
9180,1673
9181,2038
9182,1783
9183,1419
9184,1616
9185,2017
9186,1829
9187,1444
9188,1535
9189,1998
9190,1922
9191,1494
9192,1483
9193,1961
9194,2000
9195,1593
9196,1461
9197,1903
9198,2034
9199,1643
9200,1445
9201,1819
9202,2113
9203,1777
9204,1461
9205,1735
9206,2062
9207,1778
9208,1441
9209,1670
9210,2114
9211,1923
9212,1495
9213,1589
9214,2019
9215,1943
9216,1535
9217,1531
9218,2000
9219,2066
9220,1645
9221,1514
9222,1927
9223,2038
9224,1651
9225,1471
9226,1863
9227,2114
9228,1752
9229,1461
9230,1765
9231,2123
9232,1855
9233,1507
9234,1725
9235,2125
9236,1916
9237,1529
9238,1635
9239,2081
9240,1977
9241,1576
9242,1581
9243,2029
9244,2059
9245,1642
9246,1535
9247,1999
9248,2181
9249,1806
9250,1602
9251,1984
9252,2192
9253,1849
9254,1603
9255,1933
9256,2278
9257,1999
9258,1661
9259,1841
9260,2224
9261,2000
9262,1589
9263,1691
9264,2149
9265,2059
9266,1616
9267,1600
9268,2035
9269,1981
9270,1573
9271,1499
9272,1969
9273,2112
9274,1691
9275,1477
9276,1858
9277,2135
9278,1787
9279,1490
9280,1796
9281,2122
9282,1839
9283,1489
9284,1687
9285,2061
9286,1936
9287,1575
9288,1974
9289,2884
9290,3499
9291,3650
9292,4095
9293,4095
9294,4095
9295,3167
9296,2473
9297,2323
9298,2033
9299,1535
9300,1428
9301,1893
9302,2177
9303,1813
9304,1535
9305,1846
9306,2160
9307,1841
9308,1488
9309,1711
9310,2067
9311,1855
9312,1503
9313,1666
9314,2147
9315,2009
9316,1565
9317,1574
9318,2057
9319,2093
9320,1664
9321,1585
9322,2025
9323,2098
9324,1713
9325,1571
9326,1975
9327,2197
9328,1820
9329,1559
9330,1895
9331,2226
9332,1936
9333,1623
9334,1879
9335,2256
9336,2047
9337,1712
9338,1863
9339,2321
9340,2170
9341,1760
9342,1828
9343,2337
9344,2367
9345,1950
9346,1876
9347,2335
9348,2423
9349,2083
9350,1981
9351,2429
9352,2691
9353,2331
9354,2079
9355,2413
9356,2799
9357,2547
9358,2228
9359,2455
9360,2825
9361,2559
9362,2176
9363,2289
9364,2725
9365,2525
9366,2016
9367,1957
9368,2323
9369,2237
9370,1729
9371,1597
9372,1968
9373,2033
9374,1575
9375,1335
9376,1687
9377,1834
9378,1465
9379,1241
9380,1593
9381,1867
9382,1519
9383,1185
9384,1439
9385,1851
9386,1593
9387,1190
9388,1332
9389,1773
9390,1659
9391,1259
9392,1296
9393,1766
9394,1763
9395,1347
9396,1264
9397,1702
9398,1804
9399,1410
9400,1253
9401,1667
9402,1853
9403,1487
9404,1248
9405,1589
9406,1903
9407,1600
9408,1264
9409,1515
9410,1930
9411,1701
9412,1319
9413,1474
9414,1901
9415,1739
9416,1347
9417,1422
9418,1899
9419,1886
9420,1451
9421,1381
9422,1822
9423,1889
9424,1498
9425,1366
9426,1777
9427,1995
9428,1616
9429,1349
9430,1681
9431,1959
9432,1645
9433,1346
9434,1617
9435,1981
9436,1753
9437,1379
9438,1535
9439,1954
9440,1779
9441,1399
9442,1476
9443,1924
9444,1887
9445,1456
9446,1410
9447,1883
9448,1926
9449,1508
9450,1391
9451,1792
9452,1930
9453,1590
9454,1377
9455,1751
9456,2017
9457,1668
9458,1374
9459,1671
9460,2047
9461,1786
9462,1418
9463,1568
9464,1958
9465,1825
9466,1472
9467,1566
9468,2000
9469,1951
9470,1523
9471,1467
9472,1913
9473,1964
9474,1553
9475,1429
9476,1840
9477,2055
9478,1689
9479,1455
9480,1783
9481,2019
9482,1798
9483,1435
9484,1737
9485,2081
9486,1830
9487,1478
9488,1659
9489,2077
9490,1907
9491,1502
9492,1584
9493,2032
9494,1950
9495,1553
9496,1520
9497,1973
9498,2067
9499,1635
9500,1495
9501,1917
9502,2062
9503,1690
9504,1475
9505,1829
9506,2111
9507,1782
9508,1480
9509,1776
9510,2117
9511,1858
9512,1504
9513,1694
9514,2128
9515,1968
9516,1562
9517,1634
9518,2065
9519,1968
9520,1591
9521,1584
9522,2037
9523,2112
9524,1682
9525,1521
9526,1947
9527,2165
9528,1797
9529,1523
9530,1865
9531,2096
9532,1770
9533,1510
9534,1823
9535,2177
9536,1915
9537,1535
9538,1734
9539,2159
9540,1999
9541,1648
9542,1765
9543,2245
9544,2182
9545,1737
9546,1695
9547,2157
9548,2257
9549,1856
9550,1726
9551,2123
9552,2210
9553,1805
9554,1585
9555,1950
9556,2233
9557,1885
9558,1584
9559,1842
9560,2175
9561,1905
9562,1535
9563,1724
9564,2094
9565,1884
9566,1535
9567,1657
9568,2131
9569,2059
9570,1618
9571,1587
9572,2037
9573,2112
9574,1687
9575,1532
9576,1936
9577,2027
9578,1630
9579,1453
9580,1965
9581,2485
9582,2555
9583,2815
9584,4047
9585,4095
9586,4095
9587,3843
9588,3467
9589,3117
9590,2256
9591,1525
9592,1535
9593,2035
9594,2023
9595,1635
9596,1638
9597,2111
9598,2142
9599,1703
9600,1565
9601,1970
9602,2086
9603,1694
9604,1501
9605,1889
9606,2174
9607,1826
9608,1520
9609,1812
9610,2126
9611,1855
9612,1527
9613,1759
9614,2151
9615,1983
9616,1615
9617,1723
9618,2177
9619,2082
9620,1677
9621,1681
9622,2154
9623,2185
9624,1766
9625,1670
9626,2091
9627,2261
9628,1897
9629,1708
9630,2068
9631,2285
9632,1967
9633,1741
9634,2065
9635,2419
9636,2138
9637,1811
9638,2058
9639,2475
9640,2321
9641,1979
9642,2099
9643,2559
9644,2490
9645,2128
9646,2175
9647,2642
9648,2637
9649,2271
9650,2224
9651,2672
9652,2837
9653,2409
9654,2197
9655,2558
9656,2741
9657,2356
9658,2041
9659,2289
9660,2531
9661,2147
9662,1727
9663,1869
9664,2145
9665,1863
9666,1452
9667,1535
9668,1938
9669,1796
9670,1338
9671,1328
9672,1778
9673,1782
9674,1370
9675,1271
9676,1703
9677,1776
9678,1363
9679,1191
9680,1591
9681,1825
9682,1456
9683,1184
9684,1499
9685,1795
9686,1518
9687,1216
9688,1459
9689,1883
9690,1663
9691,1251
9692,1370
9693,1823
9694,1730
9695,1323
9696,1330
9697,1792
9698,1734
9699,1358
9700,1300
9701,1743
9702,1856
9703,1447
9704,1284
9705,1685
9706,1925
9707,1574
9708,1299
9709,1616
9710,1873
9711,1597
9712,1315
9713,1583
9714,1968
9715,1744
9716,1365
9717,1495
9718,1939
9719,1847
9720,1414
9721,1424
9722,1862
9723,1790
9724,1430
9725,1396
9726,1844
9727,1945
9728,1532
9729,1359
9730,1742
9731,1965
9732,1610
9733,1350
9734,1679
9735,1925
9736,1641
9737,1360
9738,1630
9739,1977
9740,1738
9741,1367
9742,1520
9743,1952
9744,1836
9745,1445
9746,1488
9747,1919
9748,1865
9749,1488
9750,1454
9751,1888
9752,1947
9753,1535
9754,1390
9755,1796
9756,2000
9757,1648
9758,1415
9759,1743
9760,1961
9761,1651
9762,1393
9763,1691
9764,2047
9765,1805
9766,1426
9767,1573
9768,1983
9769,1866
9770,1503
9771,1573
9772,2014
9773,1953
9774,1535
9775,1486
9776,1910
9777,2017
9778,1634
9779,1473
9780,1870
9781,2015
9782,1642
9783,1421
9784,1787
9785,2090
9786,1763
9787,1457
9788,1722
9789,2059
9790,1830
9791,1463
9792,1680
9793,2101
9794,1906
9795,1515
9796,1601
9797,2068
9798,2035
9799,1630
9800,1567
9801,2000
9802,1957
9803,1604
9804,1531
9805,1964
9806,2128
9807,1745
9808,1520
9809,1872
9810,2112
9811,1805
9812,1526
9813,1811
9814,2167
9815,1882
9816,1531
9817,1731
9818,2163
9819,1960
9820,1556
9821,1638
9822,2096
9823,2002
9824,1655
9825,1680
9826,2148
9827,2199
9828,1775
9829,1653
9830,2096
9831,2256
9832,1893
9833,1699
9834,2054
9835,2288
9836,1899
9837,1558
9838,1831
9839,2219
9840,1946
9841,1584
9842,1755
9843,2085
9844,1863
9845,1511
9846,1644
9847,2111
9848,2015
9849,1611
9850,1589
9851,2032
9852,2039
9853,1625
9854,1511
9855,1937
9856,2047
9857,1681
9858,1499
9859,1866
9860,2095
9861,1728
9862,1488
9863,1968
9864,2623
9865,2857
9866,3180
9867,4095
9868,4095
9869,4095
9870,3467
9871,2905
9872,2709
9873,2127
9874,1535
9875,1535
9876,2007
9877,2063
9878,1661
9879,1559
9880,1985
9881,2086
9882,1587
9883,1520
9884,1897
9885,2158
9886,1815
9887,1521
9888,1799
9889,2096
9890,1847
9891,1535
9892,1757
9893,2192
9894,2001
9895,1598
9896,1677
9897,2107
9898,2006
9899,1644
9900,1665
9901,2131
9902,2160
9903,1742
9904,1616
9905,2054
9906,2166
9907,1819
9908,1657
9909,2027
9910,2254
9911,1911
9912,1659
9913,1974
9914,2298
9915,2057
9916,1741
9917,1955
9918,2386
9919,2221
9920,1855
9921,1968
9922,2416
9923,2352
9924,2001
9925,2029
9926,2511
9927,2559
9928,2189
9929,2113
9930,2549
9931,2635
9932,2321
9933,2206
9934,2605
9935,2846
9936,2482
9937,2177
9938,2423
9939,2655
9940,2322
9941,1967
9942,2125
9943,2448
9944,2182
9945,1712
9946,1721
9947,2045
9948,1857
9949,1437
9950,1430
9951,1857
9952,1851
9953,1420
9954,1286
9955,1677
9956,1763
9957,1411
9958,1221
9959,1579
9960,1783
9961,1449
9962,1191
9963,1498
9964,1840
9965,1565
9966,1204
9967,1408
9968,1819
9969,1595
9970,1225
9971,1360
9972,1801
9973,1721
9974,1311
9975,1341
9976,1811
9977,1784
9978,1396
9979,1321
9980,1744
9981,1878
9982,1470
9983,1263
9984,1651
9985,1917
9986,1570
9987,1295
9988,1603
9989,1889
9990,1621
9991,1310
9992,1535
9993,1970
9994,1761
9995,1363
9996,1479
9997,1923
9998,1799
9999,1392
10000,1434
10001,1909
10002,1907
10003,1495
10004,1395
10005,1820
10006,1947
10007,1535
10008,1360
10009,1729
10010,1872
10011,1531
10012,1315
10013,1677
10014,2001
10015,1700
10016,1360
10017,1602
10018,1947
10019,1598
10020,1353
10021,1520
10022,1973
10023,1844
10024,1409
10025,1422
10026,1885
10027,1859
10028,1486
10029,1443
10030,1887
10031,1984
10032,1567
10033,1375
10034,1771
10035,1962
10036,1622
10037,1389
10038,1722
10039,2043
10040,1747
10041,1406
10042,1626
10043,2007
10044,1809
10045,1431
10046,1582
10047,1982
10048,1834
10049,1456
10050,1499
10051,1971
10052,1993
10053,1535
10054,1447
10055,1889
10056,1968
10057,1605
10058,1446
10059,1872
10060,2096
10061,1730
10062,1453
10063,1748
10064,2035
10065,1749
10066,1439
10067,1697
10068,2090
10069,1839
10070,1456
10071,1623
10072,2059
10073,1939
10074,1523
10075,1581
10076,2030
10077,1942
10078,1573
10079,1558
10080,1980
10081,2065
10082,1649
10083,1474
10084,1882
10085,2112
10086,1758
10087,1498
10088,1845
10089,2117
10090,1793
10091,1488
10092,1759
10093,2163
10094,1914
10095,1516
10096,1663
10097,2087
10098,1951
10099,1573
10100,1625
10101,2077
10102,2075
10103,1646
10104,1578
10105,2000
10106,2032
10107,1675
10108,1558
10109,1936
10110,2112
10111,1745
10112,1503
10113,1856
10114,2117
10115,1834
10116,1574
10117,1866
10118,2263
10119,2015
10120,1631
10121,1792
10122,2214
10123,2064
10124,1695
10125,1793
10126,2267
10127,2159
10128,1710
10129,1651
10130,2063
10131,2111
10132,1726
10133,1601
10134,2002
10135,2143
10136,1745
10137,1516
10138,1868
10139,2151
10140,1813
10141,1486
10142,1767
10143,2095
10144,1813
10145,1472
10146,1685
10147,2122
10148,1967
10149,1580
10150,1667
10151,2096
10152,1950
10153,1519
10154,1530
10155,2030
10156,2293
10157,2239
10158,2583
10159,3925
10160,4095
10161,4095
10162,3952
10163,4020
10164,3495
10165,2371
10166,1486
10167,1705
10168,1999
10169,1795
10170,1533
10171,1776
10172,2181
10173,1984
10174,1600
10175,1685
10176,2083
10177,1925
10178,1569
10179,1595
10180,2045
10181,2090
10182,1664
10183,1528
10184,1968
10185,2127
10186,1761
10187,1555
10188,1924
10189,2193
10190,1856
10191,1573
10192,1866
10193,2238
10194,1974
10195,1610
10196,1795
10197,2159
10198,1968
10199,1659
10200,1789
10201,2258
10202,2160
10203,1713
10204,1712
10205,2183
10206,2207
10207,1856
10208,1779
10209,2237
10210,2394
10211,2000
10212,1795
10213,2192
10214,2477
10215,2166
10216,1904
10217,2205
10218,2534
10219,2309
10220,2045
10221,2303
10222,2771
10223,2559
10224,2192
10225,2299
10226,2731
10227,2646
10228,2320
10229,2331
10230,2770
10231,2736
10232,2257
10233,2084
10234,2448
10235,2531
10236,2064
10237,1766
10238,2032
10239,2128
10240,1725
10241,1434
10242,1733
10243,2041
10244,1691
10245,1281
10246,1460
10247,1881
10248,1689
10249,1261
10250,1328
10251,1737
10252,1607
10253,1215
10254,1239
10255,1715
10256,1712
10257,1277
10258,1175
10259,1615
10260,1777
10261,1399
10262,1193
10263,1582
10264,1762
10265,1408
10266,1168
10267,1506
10268,1876
10269,1590
10270,1219
10271,1424
10272,1807
10273,1605
10274,1245
10275,1383
10276,1844
10277,1693
10278,1299
10279,1332
10280,1780
10281,1815
10282,1394
10283,1311
10284,1766
10285,1870
10286,1458
10287,1274
10288,1694
10289,1936
10290,1583
10291,1296
10292,1615
10293,1933
10294,1648
10295,1318
10296,1554
10297,1933
10298,1723
10299,1385
10300,1476
10301,1889
10302,1744
10303,1399
10304,1456
10305,1916
10306,1889
10307,1455
10308,1369
10309,1808
10310,1914
10311,1533
10312,1351
10313,1751
10314,1923
10315,1535
10316,1307
10317,1648
10318,1936
10319,1654
10320,1345
10321,1611
10322,2002
10323,1770
10324,1385
10325,1531
10326,1959
10327,1815
10328,1424
10329,1467
10330,1927
10331,1835
10332,1456
10333,1447
10334,1915
10335,2013
10336,1603
10337,1423
10338,1809
10339,2005
10340,1643
10341,1393
10342,1746
10343,1967
10344,1650
10345,1381
10346,1683
10347,2054
10348,1781
10349,1424
10350,1471
10351,2010
10352,1832
10353,1459
10354,1561
10355,2039
10356,2003
10357,1565
10358,1472
10359,1927
10360,2011
10361,1619
10362,1469
10363,1881
10364,2017
10365,1648
10366,1445
10367,1822
10368,2122
10369,1776
10370,1458
10371,1735
10372,2038
10373,1792
10374,1581
10375,1682
10376,2119
10377,1945
10378,1535
10379,1616
10380,2081
10381,1991
10382,1583
10383,1569
10384,2031
10385,2032
10386,1619
10387,1501
10388,1947
10389,2128
10390,1729
10391,1490
10392,1856
10393,2057
10394,1739
10395,1485
10396,1806
10397,2155
10398,1863
10399,1514
10400,1709
10401,2089
10402,1870
10403,1525
10404,1663
10405,2126
10406,1997
10407,1578
10408,1568
10409,2047
10410,2097
10411,1729
10412,1639
10413,2080
10414,2209
10415,1808
10416,1605
10417,2001
10418,2295
10419,1957
10420,1675
10421,1968
10422,2224
10423,1907
10424,1570
10425,1796
10426,2209
10427,2003
10428,1609
10429,1699
10430,2151
10431,2002
10432,1581
10433,1584
10434,2039
10435,2063
10436,1645
10437,1527
10438,1974
10439,2118
10440,1713
10441,1500
10442,1906
10443,2133
10444,1743
10445,1469
10446,1793
10447,2135
10448,1814
10449,1439
10450,1722
10451,2286
10452,2384
10453,2542
10454,3409
10455,4095
10456,4095
10457,4083
10458,3652
10459,3479
10460,2640
10461,1751
10462,1462
10463,1917
10464,2069
10465,1711
10466,1577
10467,1971
10468,2194
10469,1777
10470,1522
10471,1828
10472,2079
10473,1776
10474,1488
10475,1761
10476,2173
10477,1922
10478,1527
10479,1681
10480,2170
10481,2025
10482,1603
10483,1646
10484,2123
10485,2103
10486,1686
10487,1611
10488,2092
10489,2199
10490,1797
10491,1606
10492,1999
10493,2173
10494,1820
10495,1602
10496,1953
10497,2288
10498,1993
10499,1680
10500,1928
10501,2319
10502,2085
10503,1755
10504,1895
10505,2352
10506,2242
10507,1873
10508,1946
10509,2416
10510,2331
10511,1968
10512,1977
10513,2494
10514,2624
10515,2224
10516,2082
10517,2522
10518,2707
10519,2368
10520,2173
10521,2557
10522,2900
10523,2549
10524,2211
10525,2454
10526,2786
10527,2482
10528,2096
10529,2217
10530,2613
10531,2369
10532,1862
10533,1808
10534,2219
10535,2096
10536,1607
10537,1482
10538,1872
10539,1872
10540,1451
10541,1293
10542,1705
10543,1899
10544,1495
10545,1230
10546,1563
10547,1771
10548,1463
10549,1209
10550,1471
10551,1856
10552,1597
10553,1210
10554,1367
10555,1828
10556,1677
10557,1282
10558,1328
10559,1809
10560,1759
10561,1345
10562,1290
10563,1751
10564,1820
10565,1423
10566,1276
10567,1700
10568,1847
10569,1475
10570,1263
10571,1633
10572,1930
10573,1613
10574,1296
10575,1582
10576,1899
10577,1623
10578,1309
10579,1521
10580,1966
10581,1797
10582,1390
10583,1446
10584,1903
10585,1779
10586,1408
10587,1420
10588,1878
10589,1924
10590,1502
10591,1360
10592,1805
10593,1911
10594,1535
10595,1347
10596,1731
10597,2007
10598,1670
10599,1360
10600,1647
10601,2007
10602,1739
10603,1377
10604,1575
10605,2033
10606,1872
10607,1450
10608,1503
10609,1956
10610,1897
10611,1484
10612,1456
10613,1919
10614,1893
10615,1521
10616,1424
10617,1851
10618,1987
10619,1585
10620,1367
10621,1769
10622,2034
10623,1695
10624,1405
10625,1709
10626,2028
10627,1762
10628,1417
10629,1627
10630,2036
10631,1866
10632,1461
10633,1535
10634,2000
10635,1855
10636,1476
10637,1525
10638,1971
10639,1997
10640,1584
10641,1450
10642,1909
10643,2074
10644,1703
10645,1490
10646,1858
10647,2102
10648,1729
10649,1437
10650,1745
10651,2128
10652,1859
10653,1502
10654,1683
10655,2074
10656,1858
10657,1493
10658,1615
10659,2079
10660,1973
10661,1565
10662,1568
10663,2033
10664,1970
10665,1597
10666,1520
10667,1965
10668,2074
10669,1666
10670,1475
10671,1881
10672,2073
10673,1735
10674,1502
10675,1848
10676,2178
10677,1840
10678,1493
10679,1737
10680,2121
10681,1907
10682,1581
10683,1700
10684,2137
10685,1971
10686,1555
10687,1570
10688,2064
10689,2096
10690,1675
10691,1553
10692,1987
10693,2071
10694,1700
10695,1562
10696,1983
10697,2241
10698,1892
10699,1619
10700,1952
10701,2210
10702,1904
10703,1616
10704,1906
10705,2353
10706,2119
10707,1683
10708,1763
10709,2180
10710,2026
10711,1617
10712,1653
10713,2131
10714,2074
10715,1634
10716,1535
10717,2011
10718,2128
10719,1712
10720,1507
10721,1905
10722,2094
10723,1715
10724,1470
10725,1817
10726,2130
10727,1815
10728,1503
10729,1763
10730,2123
10731,1797
10732,1488
10733,1637
10734,2076
10735,2032
10736,1897
10737,2377
10738,3682
10739,4095
10740,4095
10741,4095
10742,4095
10743,3519
10744,2416
10745,1821
10746,1981
10747,2109
10748,1726
10749,1366
10750,1845
10751,2160
10752,1858
10753,1557
10754,1817
10755,2165
10756,1873
10757,1495
10758,1667
10759,2113
10760,1973
10761,1584
10762,1629
10763,2096
10764,1946
10765,1601
10766,1617
10767,2093
10768,2106
10769,1667
10770,1530
10771,1982
10772,2135
10773,1799
10774,1600
10775,1955
10776,2244
10777,1904
10778,1587
10779,1872
10780,2288
10781,2065
10782,1692
10783,1846
10784,2270
10785,2082
10786,1716
10787,1821
10788,2323
10789,2288
10790,1859
10791,1829
10792,2331
10793,2403
10794,2007
10795,1881
10796,2333
10797,2535
10798,2199
10799,1979
10800,2349
10801,2659
10802,2359
10803,2090
10804,2384
10805,2802
10806,2586
10807,2229
10808,2384
10809,2814
10810,2619
10811,2167
10812,2191
10813,2589
10814,2471
10815,1985
10816,1853
10817,2224
10818,2174
10819,1729
10820,1535
10821,1890
10822,2023
10823,1591
10824,1327
10825,1634
10826,1875
10827,1518
10828,1199
10829,1469
10830,1792
10831,1535
10832,1232
10833,1418
10834,1833
10835,1661
10836,1263
10837,1236
10838,1787
10839,1740
10840,1343
10841,1308
10842,1748
10843,1744
10844,1355
10845,1239
10846,1667
10847,1840
10848,1452
10849,1232
10850,1585
10851,1904
10852,1605
10853,1283
10854,1562
10855,1835
10856,1575
10857,1285
10858,1527
10859,1974
10860,1798
10861,1372
10862,1429
10863,1903
10864,1867
10865,1455
10866,1404
10867,1853
10868,1893
10869,1476
10870,1331
10871,1746
10872,1945
10873,1614
10874,1355
10875,1690
10876,1936
10877,1619
10878,1344
10879,1627
10880,1985
10881,1775
10882,1264
10883,1535
10884,1961
10885,1781
10886,1399
10887,1479
10888,1936
10889,1871
10890,1455
10891,1423
10892,1858
10893,1897
10894,1517
10895,1402
10896,1835
10897,1994
10898,1601
10899,1366
10900,1712
10901,2017
10902,1686
10903,1365
10904,1644
10905,1968
10906,1715
10907,1381
10908,1598
10909,2009
10910,1833
10911,1429
10912,1488
10913,1969
10914,1904
10915,1500
10916,1473
10917,1911
10918,1905
10919,1508
10920,1423
10921,1862
10922,2011
10923,1633
10924,1423
10925,1803
10926,1972
10927,1635
10928,1408
10929,1749
10930,2089
10931,1776
10932,1426
10933,1634
10934,1999
10935,1795
10936,1445
10937,1589
10938,2045
10939,1950
10940,1520
10941,1515
10942,1967
10943,1905
10944,1535
10945,1486
10946,1936
10947,2075
10948,1652
10949,1443
10950,1831
10951,2091
10952,1767
10953,1482
10954,1783
10955,2125
10956,1819
10957,1470
10958,1681
10959,2064
10960,1875
10961,1531
10962,1662
10963,2113
10964,1973
10965,1558
10966,1555
10967,2030
10968,2068
10969,1664
10970,1535
10971,1966
10972,2091
10973,1700
10974,1513
10975,1895
10976,2150
10977,1808
10978,1566
10979,1891
10980,2185
10981,1886
10982,1563
10983,1820
10984,2236
10985,2027
10986,1663
10987,1811
10988,2233
10989,2046
10990,1627
10991,1646
10992,2102
10993,2082
10994,1654
10995,1535
10996,1963
10997,2002
10998,1639
10999,1486
11000,1869
11001,2058
11002,1678
11003,1429
11004,1776
11005,2073
11006,1770
11007,1456
11008,1714
11009,2123
11010,1899
11011,1513
11012,1631
11013,2044
11014,1911
11015,1471
11016,1535
11017,2211
11018,2541
11019,2624
11020,3143
11021,4095
11022,4095
11023,4078
11024,3469
11025,3278
11026,2768
11027,1893
11028,1397
11029,1717
11030,2149
11031,1895
11032,1584
11033,1808
11034,2160
11035,1904
11036,1525
11037,1655
11038,2075
11039,1885
11040,1490
11041,1567
11042,2039
11043,1977
11044,1600
11045,1535
11046,1977
11047,2087
11048,1673
11049,1434
11050,1936
11051,2176
11052,1831
11053,1584
11054,1899
11055,2186
11056,1883
11057,1593
11058,1911
11059,2212
11060,2021
11061,1648
11062,1791
11063,2211
11064,2085
11065,1691
11066,1759
11067,2222
11068,2224
11069,1821
11070,1759
11071,2206
11072,2234
11073,1891
11074,1802
11075,2260
11076,2495
11077,2157
11078,1920
11079,2262
11080,2545
11081,2276
11082,2016
11083,2319
11084,2755
11085,2559
11086,2205
11087,2363
11088,2805
11089,2651
11090,2258
11091,2313
11092,2730
11093,2693
11094,2221
11095,2077
11096,2427
11097,2341
11098,1898
11099,1707
11100,2023
11101,2133
11102,1712
11103,1421
11104,1706
11105,1933
11106,1573
11107,1233
11108,1462
11109,1839
11110,1602
11111,1234
11112,1392
11113,1785
11114,1611
11115,1203
11116,1279
11117,1755
11118,1679
11119,1274
11120,1235
11121,1669
11122,1744
11123,1328
11124,1189
11125,1637
11126,1792
11127,1423
11128,1212
11129,1578
11130,1854
11131,1515
11132,1214
11133,1488
11134,1878
11135,1637
11136,1265
11137,1461
11138,1899
11139,1727
11140,1317
11141,1381
11142,1872
11143,1818
11144,1386
11145,1346
11146,1789
11147,1858
11148,1470
11149,1334
11150,1772
11151,1882
11152,1517
11153,1329
11154,1707
11155,1977
11156,1632
11157,1314
11158,1601
11159,1904
11160,1658
11161,1342
11162,1563
11163,1983
11164,1775
11165,1366
11166,1457
11167,1897
11168,1825
11169,1424
11170,1420
11171,1879
11172,1901
11173,1486
11174,1388
11175,1813
11176,1943
11177,1535
11178,1343
11179,1728
11180,1986
11181,1648
11182,1370
11183,1670
11184,2032
11185,1762
11186,1406
11187,1616
11188,1995
11189,1775
11190,1398
11191,1584
11192,1968
11193,1897
11194,1491
11195,1488
11196,1959
11197,1936
11198,1535
11199,1456
11200,1879
11201,2033
11202,1630
11203,1417
11204,1778
11205,1998
11206,1682
11207,1425
11208,1759
11209,2102
11210,1783
11211,1429
11212,1651
11213,2073
11214,1905
11215,1520
11216,1628
11217,2065
11218,1934
11219,1521
11220,1535
11221,1990
11222,2028
11223,1621
11224,1535
11225,1941
11226,2022
11227,1634
11228,1483
11229,1904
11230,2150
11231,1776
11232,1482
11233,1787
11234,2014
11235,1735
11236,1464
11237,1741
11238,2151
11239,1917
11240,1517
11241,1655
11242,2095
11243,1959
11244,1582
11245,1617
11246,2067
11247,2046
11248,1635
11249,1535
11250,1983
11251,2087
11252,1713
11253,1535
11254,1951
11255,2160
11256,1795
11257,1535
11258,1873
11259,2203
11260,1900
11261,1557
11262,1799
11263,2164
11264,1936
11265,1602
11266,1770
11267,2231
11268,2141
11269,1749
11270,1767
11271,2197
11272,2138
11273,1747
11274,1727
11275,2192
11276,2293
11277,1870
11278,1679
11279,2042
11280,2203
11281,1841
11282,1591
11283,1936
11284,2254
11285,1899
11286,1535
11287,1780
11288,2158
11289,1932
11290,1535
11291,1693
11292,2101
11293,1936
11294,1557
11295,1616
11296,2077
11297,2035
11298,1634
11299,1587
11300,2058
11301,2117
11302,1674
11303,1456
11304,1887
11305,2244
11306,2169
11307,2359
11308,3381
11309,4095
11310,4095
11311,3983
11312,3969
11313,3650
11314,2589
11315,1789
11316,1721
11317,2081
11318,1942
11319,1573
11320,1647
11321,2127
11322,2102
11323,1690
11324,1618
11325,2045
11326,2121
11327,1699
11328,1527
11329,1923
11330,2115
11331,1763
11332,1528
11333,1885
11334,2180
11335,1850
11336,1535
11337,1813
11338,2199
11339,1981
11340,1604
11341,1775
11342,2221
11343,2039
11344,1641
11345,1714
11346,2190
11347,2150
11348,1734
11349,1697
11350,2159
11351,2192
11352,1782
11353,1695
11354,2121
11355,2329
11356,1951
11357,1715
11358,2066
11359,2299
11360,1993
11361,1751
11362,2081
11363,2476
11364,2258
11365,1933
11366,2109
11367,2513
11368,2374
11369,2031
11370,2154
11371,2644
11372,2609
11373,2215
11374,2208
11375,2690
11376,2693
11377,2320
11378,2218
11379,2649
11380,2800
11381,2359
11382,2092
11383,2390
11384,2551
11385,2167
11386,1819
11387,2032
11388,2331
11389,1977
11390,1519
11391,1639
11392,2000
11393,1808
11394,1390
11395,1414
11396,1852
11397,1767
11398,1344
11399,1296
11400,1747
11401,1797
11402,1377
11403,1220
11404,1638
11405,1776
11406,1401
11407,1189
11408,1583
11409,1869
11410,1504
11411,1200
11412,1499
11413,1809
11414,1535
11415,1218
11416,1444
11417,1829
11418,1654
11419,1280
11420,1386
11421,1808
11422,1693
11423,1322
11424,1338
11425,1806
11426,1854
11427,1440
11428,1315
11429,1731
11430,1879
11431,1507
11432,1306
11433,1686
11434,1954
11435,1607
11436,1318
11437,1610
11438,1892
11439,1621
11440,1325
11441,1571
11442,1969
11443,1767
11444,1360
11445,1466
11446,1904
11447,1814
11448,1424
11449,1419
11450,1869
11451,1898
11452,1456
11453,1342
11454,1770
11455,1879
11456,1612
11457,1360
11458,1737
11459,1985
11460,1641
11461,1354
11462,1659
11463,1990
11464,1727
11465,1392
11466,1587
11467,2000
11468,1808
11469,1402
11470,1506
11471,1975
11472,1905
11473,1481
11474,1452
11475,1895
11476,1909
11477,1494
11478,1395
11479,1840
11480,2014
11481,1621
11482,1422
11483,1791
11484,2025
11485,1662
11486,1377
11487,1711
11488,2032
11489,1759
11490,1422
11491,1659
11492,2067
11493,1855
11494,1447
11495,1567
11496,2004
11497,1872
11498,1466
11499,1503
11500,1975
11501,1991
11502,1585
11503,1477
11504,1915
11505,2006
11506,1599
11507,1419
11508,1823
11509,2000
11510,1682
11511,1453
11512,1774
11513,2096
11514,1787
11515,1438
11516,1681
11517,2083
11518,1855
11519,1488
11520,1618
11521,2046
11522,1983
11523,1530
11524,1558
11525,2013
11526,2032
11527,1603
11528,1499
11529,1933
11530,2031
11531,1667
11532,1501
11533,1887
11534,2117
11535,1733
11536,1451
11537,1791
11538,2107
11539,1826
11540,1511
11541,1746
11542,2171
11543,2002
11544,1707
11545,1748
11546,2207
11547,2089
11548,1669
11549,1693
11550,2182
11551,2195
11552,1794
11553,1692
11554,2083
11555,2147
11556,1722
11557,1535
11558,1952
11559,2160
11560,1777
11561,1497
11562,1818
11563,2149
11564,1829
11565,1466
11566,1697
11567,2089
11568,1855
11569,1472
11570,1615
11571,2055
11572,1952
11573,1535
11574,1579
11575,2033
11576,1989
11577,1589
11578,1507
11579,1934
11580,2015
11581,1657
11582,1646
11583,2345
11584,3018
11585,3253
11586,3632
11587,4095
11588,4095
11589,3931
11590,2935
11591,2559
11592,2327
11593,1805
11594,1392
11595,1633
11596,2141
11597,2002
11598,1607
11599,1650
11600,2096
11601,2016
11602,1623
11603,1575
11604,1999
11605,2094
11606,1663
11607,1488
11608,1905
11609,2096
11610,1753
11611,1534
11612,1892
11613,2159
11614,1808
11615,1529
11616,1809
11617,2192
11618,1954
11619,1610
11620,1782
11621,2181
11622,2018
11623,1645
11624,1718
11625,2192
11626,2155
11627,1617
11628,1707
11629,2151
11630,2173
11631,1786
11632,1685
11633,2131
11634,2346
11635,1973
11636,1744
11637,2119
11638,2386
11639,2107
11640,1843
11641,2151
11642,2542
11643,2281
11644,1930
11645,2156
11646,2559
11647,2406
11648,2095
11649,2256
11650,2750
11651,2693
11652,2272
11653,2239
11654,2705
11655,2778
11656,2368
11657,2205
11658,2587
11659,2717
11660,2252
11661,1949
11662,2249
11663,2442
11664,2009
11665,1611
11666,1808
11667,2041
11668,1728
11669,1365
11670,1554
11671,1959
11672,1759
11673,1333
11674,1381
11675,1759
11676,1623
11677,1245
11678,1280
11679,1760
11680,1757
11681,1327
11682,1216
11683,1655
11684,1806
11685,1381
11686,1174
11687,1615
11688,1874
11689,1456
11690,1152
11691,1499
11692,1833
11693,1487
11694,1218
11695,1424
11696,1877
11697,1599
11698,1199
11699,1346
11700,1874
11701,1705
11702,1259
11703,1296
11704,1836
11705,1776
11706,1328
11707,1269
11708,1822
11709,1808
11710,1385
11711,1264
11712,1750
11713,1938
11714,1522
11715,1242
11716,1627
11717,1967
11718,1618
11719,1279
11720,1535
11721,1955
11722,1714
11723,1347
11724,1499
11725,1984
11726,1871
11727,1450
11728,1455
11729,1934
11730,1962
11731,1535
11732,1424
11733,1862
11734,1882
11735,1518
11736,1401
11737,1846
11738,2000
11739,1611
11740,1357
11741,1727
11742,2014
11743,1665
11744,1370
11745,1653
11746,1968
11747,1666
11748,1360
11749,1584
11750,2021
11751,1779
11752,1413
11753,1514
11754,2066
11755,1771
11756,1360
11757,1423
11758,1997
11759,1966
11760,1502
11761,1390
11762,1894
11763,1999
11764,1535
11765,1338
11766,1807
11767,2001
11768,1598
11769,1359
11770,1722
11771,2126
11772,1779
11773,1414
11774,1620
11775,2083
11776,1819
11777,1460
11778,1577
11779,2081
11780,1936
11781,1528
11782,1494
11783,1989
11784,1969
11785,1561
11786,1468
11787,1954
11788,2057
11789,1661
11790,1470
11791,1876
11792,2128
11793,1749
11794,1462
11795,1786
11796,2134
11797,1825
11798,1499
11799,1711
11800,2173
11801,1897
11802,1516
11803,1609
11804,2101
11805,1939
11806,1515
11807,1535
11808,2093
11809,2000
11810,1606
11811,1532
11812,2008
11813,2129
11814,1712
11815,1502
11816,1925
11817,2112
11818,1725
11819,1481
11820,1850
11821,2214
11822,1847
11823,1498
11824,1760
11825,2251
11826,1981
11827,1599
11828,1741
11829,2291
11830,2064
11831,1671
11832,1712
11833,2250
11834,2186
11835,1747
11836,1675
11837,2176
11838,2174
11839,1714
11840,1535
11841,2023
11842,2225
11843,1808
11844,1526
11845,1875
11846,2195
11847,1805
11848,1482
11849,1739
11850,2171
11851,1862
11852,1501
11853,1668
11854,2218
11855,1995
11856,1535
11857,1535
11858,2099
11859,1987
11860,1575
11861,1527
11862,2077
11863,2058
11864,1535
11865,1407
11866,2077
11867,2619
11868,2630
11869,2944
11870,4095
11871,4095
11872,4086
11873,3374
11874,3123
11875,2992
11876,2072
11877,1405
11878,1525
11879,2132
11880,1872
11881,1517
11882,1617
11883,2224
11884,2011
11885,1523
11886,1491
11887,2084
11888,2015
11889,1532
11890,1430
11891,1999
11892,2073
11893,1623
11894,1445
11895,1910
11896,2193
11897,1712
11898,1447
11899,1823
11900,2245
11901,1785
11902,1482
11903,1732
11904,2325
11905,1969
11906,1535
11907,1655
11908,2241
11909,1958
11910,1535
11911,1648
11912,2292
11913,2176
11914,1709
11915,1642
11916,2207
