Sample_Index,ADC_Value
0,1710
1,1825
2,1835
3,1678
4,1697
5,1814
6,1866
7,1729
8,1682
9,1791
10,1855
11,1794
12,1746
13,1845
14,1897
15,1825
16,1718
17,1746
18,1973
19,1957
20,1806
21,1872
22,1975
23,1978
24,1849
25,1915
26,2030
27,2019
28,1904
29,1942
30,2068
31,2112
32,2011
33,2018
34,2160
35,2265
36,2201
37,2160
38,2299
39,2393
40,2335
41,2259
42,2388
43,2450
44,2421
45,2342
46,2461
47,2542
48,2517
49,2367
50,2399
51,2480
52,2422
53,2210
54,2123
55,2128
56,2080
57,1888
58,1791
59,1819
60,1808
61,1674
62,1580
63,1633
64,1655
65,1535
66,1430
67,1567
68,1646
69,1589
70,1443
71,1535
72,1618
73,1591
74,1447
75,1503
76,1600
77,1603
78,1466
79,1439
80,1621
81,1621
82,1485
83,1471
84,1610
85,1682
86,1583
87,1495
88,1612
89,1679
90,1611
91,1519
92,1655
93,1712
94,1644
95,1517
96,1631
97,1711
98,1681
99,1535
100,1618
101,1726
102,1735
103,1593
104,1611
105,1694
106,1712
107,1591
108,1588
109,1682
110,1741
111,1631
112,1567
113,1699
114,1783
115,1705
116,1582
117,1681
118,1715
119,1653
120,1535
121,1663
122,1761
123,1745
124,1596
125,1664
126,1792
127,1778
128,1636
129,1619
130,1721
131,1747
132,1648
133,1730
134,1731
135,1776
136,1673
137,1606
138,1826
139,1829
140,1758
141,1648
142,1743
143,1825
144,1774
145,1636
146,1715
147,1802
148,1794
149,1670
150,1728
151,1808
152,1808
153,1654
154,1686
155,1818
156,1853
157,1712
158,1687
159,1808
160,1860
161,1735
162,1673
163,1789
164,1823
165,1742
166,1655
167,1791
168,1847
169,1785
170,1673
171,1810
172,1937
173,1942
174,1818
175,1889
176,1991
177,1974
178,1830
179,1796
180,1955
181,1990
182,1883
183,1840
184,1916
185,1907
186,1774
187,1715
188,1783
189,1935
190,1828
191,1685
192,1776
193,1837
194,1774
195,1633
196,1732
197,1826
198,1792
199,1658
200,1744
201,1878
202,1877
203,1671
204,1689
205,1839
206,1872
207,1680
208,1607
209,1805
210,2060
211,2302
212,2753
213,3797
214,4095
215,4095
216,4095
217,3901
218,3070
219,2274
220,1698
221,1678
222,1834
223,1866
224,1723
225,1790
226,1927
227,1915
228,1712
229,1711
230,1830
231,1843
232,1696
233,1664
234,1822
235,1900
236,1761
237,1673
238,1808
239,1925
240,1831
241,1687
242,1829
243,1934
244,1846
245,1693
246,1792
247,1933
248,1911
249,1759
250,1825
251,1954
252,1952
253,1818
254,1866
255,1990
256,2022
257,1869
258,1853
259,2026
260,2105
261,1970
262,1904
263,2075
264,2177
265,2099
266,1984
267,2149
268,2285
269,2254
270,2144
271,2270
272,2416
273,2395
274,2250
275,2333
276,2480
277,2496
278,2343
279,2384
280,2527
281,2556
282,2365
283,2286
284,2346
285,2320
286,2153
287,1984
288,2026
289,2004
290,1825
291,1642
292,1725
293,1798
294,1712
295,1509
296,1557
297,1604
298,1535
299,1378
300,1436
301,1585
302,1582
303,1386
304,1413
305,1558
306,1584
307,1427
308,1354
309,1535
310,1578
311,1430
312,1360
313,1520
314,1633
315,1535
316,1409
317,1535
318,1650
319,1578
320,1418
321,1520
322,1629
323,1583
324,1421
325,1507
326,1636
327,1655
328,1495
329,1535
330,1681
331,1709
332,1527
333,1487
334,1620
335,1673
336,1558
337,1494
338,1633
339,1687
340,1576
341,1466
342,1623
343,1730
344,1659
345,1493
346,1598
347,1726
348,1678
349,1491
350,1569
351,1682
352,1675
353,1514
354,1535
355,1688
356,1729
357,1569
358,1535
359,1682
360,1734
361,1593
362,1517
363,1659
364,1739
365,1651
366,1524
367,1669
368,1781
369,1713
370,1535
371,1643
372,1757
373,1714
374,1563
375,1641
376,1729
377,1712
378,1563
379,1613
380,1746
381,1792
382,1634
383,1611
384,1744
385,1785
386,1659
387,1599
388,1746
389,1815
390,1690
391,1555
392,1710
393,1831
394,1773
395,1618
396,1715
397,1808
398,1753
399,1648
400,1680
401,1824
402,1825
403,1637
404,1650
405,1777
406,1812
407,1690
408,1712
409,1867
410,1932
411,1811
412,1738
413,1866
414,1937
415,1842
416,1738
417,1915
418,2047
419,1949
420,1731
421,1775
422,1862
423,1830
424,1680
425,1747
426,1872
427,1836
428,1639
429,1647
430,1773
431,1793
432,1651
433,1635
434,1749
435,1789
436,1661
437,1595
438,1731
439,1799
440,1718
441,1616
442,1750
443,1807
444,1677
445,1513
446,1728
447,2105
448,2515
449,2970
450,3970
451,4095
452,4095
453,3902
454,3239
455,2635
456,2117
457,1664
458,1584
459,1760
460,1867
461,1753
462,1677
463,1802
464,1845
465,1743
466,1632
467,1768
468,1857
469,1774
470,1606
471,1711
472,1850
473,1808
474,1643
475,1728
476,1842
477,1836
478,1680
479,1733
480,1872
481,1907
482,1742
483,1725
484,1881
485,1926
486,1777
487,1758
488,1874
489,1968
490,1882
491,1770
492,1907
493,2000
494,1951
495,1819
496,1938
497,2055
498,2019
499,1891
500,2002
501,2144
502,2160
503,2015
504,2065
505,2222
506,2281
507,2153
508,2166
509,2319
510,2362
511,2277
512,2223
513,2413
514,2536
515,2439
516,2303
517,2425
518,2512
519,2413
520,2218
521,2255
522,2257
523,2133
524,1915
525,1936
526,1987
527,1910
528,1669
529,1654
530,1766
531,1741
532,1520
533,1459
534,1565
535,1591
536,1431
537,1363
538,1517
539,1604
540,1477
541,1344
542,1485
543,1601
544,1510
545,1345
546,1465
547,1565
548,1526
549,1375
550,1468
551,1602
552,1607
553,1424
554,1422
555,1615
556,1661
557,1499
558,1465
559,1614
560,1650
561,1509
562,1436
563,1587
564,1658
565,1555
566,1437
567,1597
568,1727
569,1648
570,1452
571,1533
572,1669
573,1651
574,1472
575,1565
576,1676
577,1648
578,1488
579,1535
580,1680
581,1699
582,1499
583,1480
584,1620
585,1675
586,1554
587,1482
588,1630
589,1680
590,1585
591,1466
592,1622
593,1709
594,1634
595,1471
596,1589
597,1712
598,1664
599,1533
600,1613
601,1693
602,1648
603,1488
604,1535
605,1687
606,1717
607,1565
608,1535
609,1712
610,1776
611,1642
612,1557
613,1680
614,1727
615,1635
616,1520
617,1699
618,1789
619,1683
620,1514
621,1663
622,1803
623,1771
624,1599
625,1670
626,1750
627,1717
628,1567
629,1616
630,1776
631,1808
632,1641
633,1613
634,1754
635,1822
636,1696
637,1617
638,1761
639,1839
640,1728
641,1609
642,1763
643,1884
644,1829
645,1697
646,1821
647,1904
648,1840
649,1680
650,1829
651,1959
652,1938
653,1773
654,1808
655,1913
656,1872
657,1683
658,1693
659,1859
660,1899
661,1728
662,1617
663,1744
664,1813
665,1719
666,1651
667,1733
668,1838
669,1761
670,1596
671,1694
672,1807
673,1762
674,1617
675,1715
676,1824
677,1807
678,1600
679,1590
680,1728
681,1862
682,2055
683,2559
684,3511
685,4095
686,4095
687,4067
688,3619
689,2898
690,2224
691,1786
692,1799
693,1841
694,1774
695,1644
696,1794
697,1918
698,1877
699,1695
700,1767
701,1841
702,1806
703,1665
704,1729
705,1872
706,1871
707,1716
708,1699
709,1840
710,1895
711,1782
712,1706
713,1855
714,1959
715,1853
716,1713
717,1854
718,1963
719,1885
720,1732
721,1867
722,1945
723,1911
724,1774
725,1894
726,2053
727,2065
728,1874
729,1906
730,2077
731,2115
732,1942
733,1940
734,2109
735,2169
736,2047
737,2001
738,2182
739,2295
740,2224
741,2128
742,2283
743,2389
744,2341
745,2213
746,2352
747,2496
748,2481
749,2320
750,2415
751,2555
752,2545
753,2338
754,2339
755,2423
756,2354
757,2128
758,2047
759,2124
760,2112
761,1895
762,1751
763,1838
764,1856
765,1707
766,1535
767,1663
768,1712
769,1613
770,1428
771,1535
772,1687
773,1649
774,1456
775,1527
776,1680
777,1644
778,1450
779,1471
780,1605
781,1670
782,1506
783,1488
784,1648
785,1695
786,1535
787,1470
788,1641
789,1729
790,1621
791,1472
792,1622
793,1723
794,1659
795,1507
796,1648
797,1765
798,1728
799,1535
800,1607
801,1717
802,1733
803,1561
804,1598
805,1744
806,1757
807,1589
808,1573
809,1705
810,1744
811,1602
812,1535
813,1708
814,1773
815,1647
816,1519
817,1680
818,1776
819,1691
820,1520
821,1643
822,1784
823,1728
824,1535
825,1629
826,1744
827,1759
828,1597
829,1616
830,1762
831,1778
832,1615
833,1601
834,1727
835,1777
836,1639
837,1584
838,1742
839,1809
840,1696
841,1557
842,1696
843,1835
844,1763
845,1591
846,1685
847,1781
848,1729
849,1571
850,1664
851,1808
852,1807
853,1616
854,1642
855,1766
856,1801
857,1642
858,1625
859,1763
860,1831
861,1715
862,1633
863,1763
864,1827
865,1729
866,1605
867,1728
868,1819
869,1751
870,1616
871,1744
872,1841
873,1819
874,1648
875,1717
876,1840
877,1811
878,1643
879,1699
880,1845
881,1896
882,1741
883,1732
884,1877
885,1941
886,1838
887,1771
888,1906
889,1995
890,1898
891,1808
892,1943
893,1989
894,1861
895,1687
896,1805
897,1893
898,1858
899,1663
900,1716
901,1831
902,1814
903,1648
904,1674
905,1775
906,1730
907,1648
908,1630
909,1770
910,1817
911,1686
912,1616
913,1760
914,1840
915,1724
916,1596
917,1725
918,1789
919,1751
920,1744
921,2197
922,2815
923,3615
924,4095
925,4095
926,4095
927,3829
928,2841
929,2288
930,2001
931,1842
932,1659
933,1695
934,1856
935,1904
936,1786
937,1719
938,1861
939,1920
940,1798
941,1677
942,1807
943,1872
944,1815
945,1663
946,1798
947,1931
948,1887
949,1710
950,1719
951,1920
952,1943
953,1766
954,1806
955,1940
956,1947
957,1795
958,1787
959,1926
960,2000
961,1871
962,1814
963,1984
964,2078
965,1966
966,1834
967,1982
968,2079
969,2025
970,1899
971,2118
972,2181
973,2141
974,1981
975,2084
976,2217
977,2247
978,2109
979,2161
980,2353
981,2420
982,2288
983,2288
984,2443
985,2529
986,2418
987,2363
988,2499
989,2559
990,2471
991,2367
992,2501
993,2559
994,2423
995,2203
996,2253
997,2252
998,2112
999,1868
1000,1886
1001,1931
1002,1843
1003,1648
1004,1652
1005,1744
1006,1733
1007,1527
1008,1489
1009,1650
1010,1680
1011,1535
1012,1446
1013,1566
1014,1652
1015,1561
1016,1426
1017,1573
1018,1649
1019,1585
1020,1436
1021,1562
1022,1675
1023,1680
1024,1463
1025,1535
1026,1653
1027,1658
1028,1506
1029,1535
1030,1679
1031,1691
1032,1527
1033,1535
1034,1674
1035,1729
1036,1599
1037,1520
1038,1670
1039,1744
1040,1641
1041,1507
1042,1649
1043,1755
1044,1693
1045,1523
1046,1645
1047,1727
1048,1686
1049,1535
1050,1622
1051,1766
1052,1763
1053,1570
1054,1586
1055,1698
1056,1707
1057,1552
1058,1578
1059,1727
1060,1778
1061,1623
1062,1535
1063,1675
1064,1744
1065,1634
1066,1519
1067,1669
1068,1775
1069,1714
1070,1563
1071,1675
1072,1765
1073,1717
1074,1554
1075,1639
1076,1781
1077,1777
1078,1613
1079,1631
1080,1741
1081,1775
1082,1616
1083,1605
1084,1754
1085,1813
1086,1671
1087,1590
1088,1699
1089,1754
1090,1675
1091,1577
1092,1743
1093,1834
1094,1753
1095,1602
1096,1728
1097,1811
1098,1776
1099,1614
1100,1687
1101,1810
1102,1798
1103,1639
1104,1682
1105,1802
1106,1823
1107,1680
1108,1678
1109,1825
1110,1858
1111,1696
1112,1613
1113,1744
1114,1808
1115,1721
1116,1616
1117,1790
1118,1858
1119,1794
1120,1665
1121,1778
1122,1853
1123,1795
1124,1630
1125,1718
1126,1831
1127,1819
1128,1679
1129,1781
1130,1945
1131,2003
1132,1853
1133,1810
1134,1903
1135,1943
1136,1837
1137,1807
1138,2000
1139,2085
1140,1914
1141,1728
1142,1813
1143,1875
1144,1834
1145,1781
1146,1811
1147,1872
1148,1825
1149,1646
1150,1714
1151,1798
1152,1792
1153,1639
1154,1668
1155,1821
1156,1841
1157,1666
1158,1641
1159,1757
1160,1801
1161,1687
1162,1629
1163,1771
1164,1821
1165,1686
1166,1622
1167,1984
1168,2480
1169,3037
1170,3741
1171,4095
1172,4095
1173,4095
1174,3311
1175,2662
1176,2160
1177,1801
1178,1535
1179,1651
1180,1853
1181,1878
1182,1741
1183,1733
1184,1840
1185,1856
1186,1694
1187,1624
1188,1776
1189,1846
1190,1749
1191,1623
1192,1765
1193,1818
1194,1755
1195,1626
1196,1776
1197,1904
1198,1871
1199,1700
1200,1776
1201,1894
1202,1884
1203,1718
1204,1755
1205,1879
1206,1931
1207,1795
1208,1806
1209,1937
1210,1971
1211,1853
1212,1790
1213,1959
1214,2042
1215,1964
1216,1839
1217,1973
1218,2066
1219,2033
1220,1939
1221,2093
1222,2192
1223,2176
1224,2047
1225,2160
1226,2255
1227,2258
1228,2154
1229,2256
1230,2419
1231,2466
1232,2321
1233,2324
1234,2462
1235,2523
1236,2391
1237,2331
1238,2475
1239,2503
1240,2358
1241,2201
1242,2273
1243,2275
1244,2126
1245,1870
1246,1892
1247,1930
1248,1823
1249,1591
1250,1621
1251,1694
1252,1664
1253,1455
1254,1463
1255,1583
1256,1573
1257,1395
1258,1376
1259,1504
1260,1578
1261,1437
1262,1370
1263,1498
1264,1534
1265,1447
1266,1340
1267,1488
1268,1578
1269,1488
1270,1344
1271,1486
1272,1535
1273,1554
1274,1392
1275,1483
1276,1585
1277,1584
1278,1420
1279,1450
1280,1584
1281,1616
1282,1457
1283,1456
1284,1602
1285,1667
1286,1533
1287,1458
1288,1586
1289,1628
1290,1520
1291,1402
1292,1535
1293,1641
1294,1564
1295,1417
1296,1555
1297,1638
1298,1579
1299,1392
1300,1488
1301,1639
1302,1609
1303,1415
1304,1453
1305,1591
1306,1629
1307,1461
1308,1446
1309,1598
1310,1620
1311,1463
1312,1389
1313,1530
1314,1628
1315,1495
1316,1361
1317,1523
1318,1616
1319,1535
1320,1385
1321,1520
1322,1638
1323,1602
1324,1411
1325,1489
1326,1615
1327,1601
1328,1427
1329,1467
1330,1603
1331,1614
1332,1445
1333,1429
1334,1574
1335,1598
1336,1441
1337,1382
1338,1535
1339,1621
1340,1495
1341,1374
1342,1526
1343,1619
1344,1534
1345,1381
1346,1503
1347,1631
1348,1559
1349,1354
1350,1424
1351,1569
1352,1577
1353,1402
1354,1456
1355,1599
1356,1610
1357,1419
1358,1392
1359,1525
1360,1595
1361,1457
1362,1373
1363,1520
1364,1593
1365,1481
1366,1349
1367,1488
1368,1586
1369,1491
1370,1337
1371,1451
1372,1535
1373,1504
1374,1339
1375,1423
1376,1566
1377,1535
1378,1386
1379,1433
1380,1589
1381,1648
1382,1488
1383,1469
1384,1616
1385,1648
1386,1495
1387,1454
1388,1631
1389,1712
1390,1571
1391,1396
1392,1493
1393,1535
1394,1463
1395,1313
1396,1424
1397,1489
1398,1424
1399,1247
1400,1335
1401,1453
1402,1430
1403,1248
1404,1267
1405,1425
1406,1438
1407,1264
1408,1261
1409,1418
1410,1475
1411,1299
1412,1207
1413,1338
1414,1381
1415,1241
1416,1179
1417,1535
1418,2043
1419,2496
1420,2960
1421,3755
1422,3958
1423,3389
1424,2645
1425,2176
1426,1773
1427,1423
1428,1152
1429,1242
1430,1443
1431,1509
1432,1337
1433,1299
1434,1389
1435,1398
1436,1249
1437,1195
1438,1366
1439,1412
1440,1277
1441,1152
1442,1318
1443,1453
1444,1366
1445,1189
1446,1297
1447,1421
1448,1374
1449,1214
1450,1313
1451,1469
1452,1435
1453,1250
1454,1309
1455,1458
1456,1483
1457,1319
1458,1318
1459,1467
1460,1511
1461,1375
1462,1327
1463,1474
1464,1565
1465,1469
1466,1361
1467,1535
1468,1637
1469,1567
1470,1438
1471,1586
1472,1744
1473,1701
1474,1535
1475,1681
1476,1840
1477,1855
1478,1703
1479,1687
1480,1954
1481,1981
1482,1831
1483,1847
1484,2034
1485,2070
1486,1919
1487,1872
1488,2030
1489,2117
1490,1947
1491,1763
1492,1822
1493,1832
1494,1648
1495,1424
1496,1488
1497,1555
1498,1410
1499,1136
1500,1168
1501,1276
1502,1269
1503,1058
1504,1053
1505,1166
1506,1178
1507,987
1508,969
1509,1139
1510,1200
1511,1019
1512,942
1513,1087
1514,1167
1515,1055
1516,944
1517,1105
1518,1237
1519,1136
1520,974
1521,1111
1522,1264
1523,1213
1524,1032
1525,1115
1526,1239
1527,1227
1528,1057
1529,1111
1530,1271
1531,1299
1532,1130
1533,1124
1534,1298
1535,1382
1536,1213
1537,1129
1538,1268
1539,1357
1540,1231
1541,1117
1542,1265
1543,1382
1544,1296
1545,1139
1546,1275
1547,1421
1548,1362
1549,1159
1550,1241
1551,1381
1552,1376
1553,1187
1554,1233
1555,1424
1556,1443
1557,1238
1558,1216
1559,1379
1560,1467
1561,1317
1562,1232
1563,1378
1564,1460
1565,1326
1566,1221
1567,1405
1568,1556
1569,1457
1570,1293
1571,1408
1572,1556
1573,1495
1574,1301
1575,1383
1576,1533
1577,1526
1578,1344
1579,1394
1580,1570
1581,1615
1582,1413
1583,1411
1584,1584
1585,1669
1586,1490
1587,1424
1588,1589
1589,1675
1590,1534
1591,1423
1592,1597
1593,1722
1594,1615
1595,1439
1596,1575
1597,1744
1598,1705
1599,1507
1600,1600
1601,1751
1602,1734
1603,1535
1604,1616
1605,1775
1606,1797
1607,1610
1608,1605
1609,1763
1610,1846
1611,1685
1612,1621
1613,1776
1614,1857
1615,1712
1616,1600
1617,1751
1618,1875
1619,1808
1620,1695
1621,1850
1622,2027
1623,1968
1624,1773
1625,1840
1626,2003
1627,2007
1628,1825
1629,1897
1630,2064
1631,2069
1632,1841
1633,1809
1634,1956
1635,2017
1636,1840
1637,1756
1638,1885
1639,1983
1640,1843
1641,1711
1642,1838
1643,1942
1644,1856
1645,1699
1646,1823
1647,1969
1648,1902
1649,1717
1650,1808
1651,1973
1652,1957
1653,1766
1654,1799
1655,1934
1656,1905
1657,1707
1658,1807
1659,2244
1660,2756
1661,3267
1662,4095
1663,4095
1664,4095
1665,4095
1666,3437
1667,2791
1668,2365
1669,1966
1670,1730
1671,1897
1672,2111
1673,2070
1674,1878
1675,1943
1676,2071
1677,2029
1678,1823
1679,1885
1680,2064
1681,2077
1682,1870
1683,1845
1684,2007
1685,2094
1686,1936
1687,1872
1688,2022
1689,2128
1690,2000
1691,1898
1692,2032
1693,2128
1694,2026
1695,1906
1696,2060
1697,2205
1698,2140
1699,1966
1700,2063
1701,2219
1702,2193
1703,2010
1704,2065
1705,2233
1706,2269
1707,2106
1708,2112
1709,2275
1710,2353
1711,2202
1712,2160
1713,2347
1714,2443
1715,2306
1716,2227
1717,2418
1718,2559
1719,2494
1720,2357
1721,2517
1722,2675
1723,2639
1724,2481
1725,2622
1726,2801
1727,2750
1728,2549
1729,2608
1730,2759
1731,2756
1732,2505
1733,2445
1734,2512
1735,2481
1736,2233
1737,2105
1738,2190
1739,2193
1740,1961
1741,1804
1742,1930
1743,2015
1744,1890
1745,1678
1746,1792
1747,1901
1748,1825
1749,1616
1750,1694
1751,1856
1752,1818
1753,1625
1754,1683
1755,1856
1756,1875
1757,1673
1758,1657
1759,1795
1760,1862
1761,1702
1762,1662
1763,1819
1764,1894
1765,1754
1766,1651
1767,1821
1768,1963
1769,1841
1770,1674
1771,1798
1772,1930
1773,1872
1774,1685
1775,1791
1776,1937
1777,1911
1778,1741
1779,1813
1780,1971
1781,1986
1782,1757
1783,1743
1784,1902
1785,1973
1786,1804
1787,1749
1788,1919
1789,2005
1790,1851
1791,1741
1792,1872
1793,2000
1794,1902
1795,1738
1796,1861
1797,1977
1798,1903
1799,1731
1800,1838
1801,2001
1802,1990
1803,1787
1804,1831
1805,1953
1806,1975
1807,1798
1808,1790
1809,1957
1810,2011
1811,1840
1812,1791
1813,1966
1814,2065
1815,1905
1816,1789
1817,1930
1818,2006
1819,1902
1820,1773
1821,1916
1822,2057
1823,1981
1824,1808
1825,1911
1826,2084
1827,2058
1828,1847
1829,1900
1830,2023
1831,2014
1832,1821
1833,1839
1834,2023
1835,2096
1836,1915
1837,1856
1838,2016
1839,2121
1840,1962
1841,1847
1842,1975
1843,2070
1844,1974
1845,1840
1846,1970
1847,2126
1848,2030
1849,1839
1850,1951
1851,2128
1852,2102
1853,1898
1854,1945
1855,2076
1856,2099
1857,1940
1858,1981
1859,2157
1860,2229
1861,2062
1862,1989
1863,2134
1864,2229
1865,2097
1866,2014
1867,2204
1868,2290
1869,2143
1870,1943
1871,2077
1872,2192
1873,2097
1874,1907
1875,1994
1876,2095
1877,2034
1878,1845
1879,1898
1880,2039
1881,2037
1882,1851
1883,1870
1884,2038
1885,2110
1886,1911
1887,1850
1888,1977
1889,2046
1890,1851
1891,1804
1892,1950
1893,2027
1894,1872
1895,1791
1896,2135
1897,2672
1898,3249
1899,3938
1900,4095
1901,4095
1902,4095
1903,3757
1904,2990
1905,2512
1906,2123
1907,1808
1908,1851
1909,2064
1910,2128
1911,1932
1912,1881
1913,2009
1914,2083
1915,1932
1916,1823
1917,1966
1918,2062
1919,1955
1920,1806
1921,1923
1922,2041
1923,1967
1924,1790
1925,1910
1926,2027
1927,1974
1928,1802
1929,1878
1930,2047
1931,2035
1932,1842
1933,1870
1934,2038
1935,2115
1936,1931
1937,1886
1938,2037
1939,2111
1940,1968
1941,1879
1942,2032
1943,2131
1944,2055
1945,1915
1946,2064
1947,2219
1948,2161
1949,1997
1950,2121
1951,2225
1952,2214
1953,2057
1954,2185
1955,2365
1956,2368
1957,2196
1958,2254
1959,2448
1960,2518
1961,2366
1962,2326
1963,2467
1964,2540
1965,2404
1966,2321
1967,2487
1968,2559
1969,2395
1970,2192
1971,2256
1972,2294
1973,2129
1974,1878
1975,1904
1976,1967
1977,1841
1978,1589
1979,1565
1980,1727
1981,1710
1982,1479
1983,1471
1984,1606
1985,1621
1986,1413
1987,1362
1988,1526
1989,1600
1990,1443
1991,1359
1992,1520
1993,1618
1994,1472
1995,1326
1996,1472
1997,1575
1998,1479
1999,1314
2000,1431
2001,1579
2002,1522
2003,1348
2004,1429
2005,1600
2006,1583
2007,1378
2008,1424
2009,1584
2010,1642
2011,1439
2012,1408
2013,1567
2014,1627
2015,1472
2016,1375
2017,1532
2018,1638
2019,1501
2020,1360
2021,1499
2022,1629
2023,1535
2024,1370
2025,1480
2026,1593
2027,1533
2028,1353
2029,1442
2030,1600
2031,1593
2032,1393
2033,1422
2034,1589
2035,1629
2036,1421
2037,1371
2038,1535
2039,1638
2040,1476
2041,1359
2042,1479
2043,1573
2044,1467
2045,1341
2046,1485
2047,1614
2048,1520
2049,1363
2050,1489
2051,1628
2052,1579
2053,1360
2054,1414
2055,1583
2056,1598
2057,1408
2058,1441
2059,1581
2060,1601
2061,1420
2062,1392
2063,1557
2064,1614
2065,1443
2066,1368
2067,1561
2068,1681
2069,1535
2070,1383
2071,1567
2072,1645
2073,1559
2074,1398
2075,1499
2076,1611
2077,1571
2078,1390
2079,1558
2080,1647
2081,1616
2082,1419
2083,1457
2084,1625
2085,1664
2086,1466
2087,1427
2088,1594
2089,1664
2090,1584
2091,1413
2092,1579
2093,1673
2094,1535
2095,1421
2096,1578
2097,1695
2098,1599
2099,1401
2100,1521
2101,1655
2102,1630
2103,1463
2104,1582
2105,1754
2106,1766
2107,1595
2108,1621
2109,1770
2110,1782
2111,1616
2112,1612
2113,1793
2114,1893
2115,1719
2116,1596
2117,1676
2118,1729
2119,1593
2120,1473
2121,1616
2122,1718
2123,1605
2124,1424
2125,1562
2126,1707
2127,1618
2128,1407
2129,1499
2130,1663
2131,1659
2132,1453
2133,1489
2134,1642
2135,1663
2136,1487
2137,1475
2138,1647
2139,1686
2140,1458
2141,1370
2142,1665
2143,2096
2144,2473
2145,2991
2146,4060
2147,4095
2148,4095
2149,3325
2150,2813
2151,2348
2152,1845
2153,1446
2154,1514
2155,1719
2156,1744
2157,1535
2158,1599
2159,1750
2160,1769
2161,1586
2162,1557
2163,1694
2164,1755
2165,1613
2166,1503
2167,1648
2168,1742
2169,1617
2170,1507
2171,1667
2172,1782
2173,1685
2174,1553
2175,1674
2176,1823
2177,1775
2178,1602
2179,1691
2180,1840
2181,1840
2182,1638
2183,1677
2184,1869
2185,1901
2186,1712
2187,1698
2188,1872
2189,1963
2190,1795
2191,1744
2192,1911
2193,2005
2194,1894
2195,1827
2196,1975
2197,2128
2198,2068
2199,1930
2200,2074
2201,2230
2202,2204
2203,2062
2204,2192
2205,2384
2206,2366
2207,2190
2208,2252
2209,2406
2210,2430
2211,2270
2212,2286
2213,2431
2214,2461
2215,2256
2216,2146
2217,2209
2218,2183
2219,1965
2220,1779
2221,1870
2222,1926
2223,1765
2224,1533
2225,1584
2226,1637
2227,1535
2228,1346
2229,1425
2230,1569
2231,1520
2232,1311
2233,1332
2234,1456
2235,1435
2236,1259
2237,1276
2238,1523
2239,1495
2240,1327
2241,1263
2242,1399
2243,1456
2244,1343
2245,1255
2246,1438
2247,1562
2248,1459
2249,1306
2250,1445
2251,1600
2252,1535
2253,1349
2254,1441
2255,1616
2256,1584
2257,1397
2258,1470
2259,1622
2260,1649
2261,1456
2262,1466
2263,1633
2264,1678
2265,1488
2266,1430
2267,1603
2268,1712
2269,1570
2270,1471
2271,1614
2272,1712
2273,1599
2274,1438
2275,1594
2276,1741
2277,1669
2278,1484
2279,1571
2280,1702
2281,1678
2282,1485
2283,1567
2284,1747
2285,1740
2286,1532
2287,1535
2288,1726
2289,1786
2290,1610
2291,1554
2292,1724
2293,1808
2294,1622
2295,1556
2296,1713
2297,1808
2298,1702
2299,1564
2300,1712
2301,1808
2302,1741
2303,1579
2304,1693
2305,1870
2306,1836
2307,1632
2308,1657
2309,1816
2310,1847
2311,1653
2312,1651
2313,1810
2314,1859
2315,1698
2316,1659
2317,1822
2318,1917
2319,1754
2320,1631
2321,1782
2322,1865
2323,1776
2324,1645
2325,1798
2326,1934
2327,1852
2328,1680
2329,1778
2330,1898
2331,1863
2332,1680
2333,1742
2334,1917
2335,1920
2336,1745
2337,1766
2338,1918
2339,1971
2340,1786
2341,1738
2342,1886
2343,1936
2344,1798
2345,1721
2346,1875
2347,1996
2348,1872
2349,1730
2350,1871
2351,1982
2352,1905
2353,1739
2354,1859
2355,2039
2356,2026
2357,1871
2358,1949
2359,2109
2360,2115
2361,1917
2362,1929
2363,2091
2364,2160
2365,2010
2366,1958
2367,2081
2368,2103
2369,1995
2370,1829
2371,1970
2372,2073
2373,1937
2374,1763
2375,1886
2376,2022
2377,1936
2378,1744
2379,1842
2380,1980
2381,1954
2382,1757
2383,1822
2384,1961
2385,1954
2386,1781
2387,1809
2388,1982
2389,2010
2390,1795
2391,1712
2392,1843
2393,1996
2394,2069
2395,2410
2396,3233
2397,4095
2398,4095
2399,4095
2400,4095
2401,4095
2402,3040
2403,2199
2404,1915
2405,1921
2406,1906
2407,1799
2408,1920
2409,2085
2410,2042
2411,1840
2412,1840
2413,1979
2414,2032
2415,1853
2416,1815
2417,1955
2418,2032
2419,1899
2420,1808
2421,1968
2422,2064
2423,1937
2424,1812
2425,1960
2426,2063
2427,1969
2428,1808
2429,1941
2430,2119
2431,2071
2432,1886
2433,1967
2434,2114
2435,2112
2436,1915
2437,1951
2438,2112
2439,2161
2440,2015
2441,2006
2442,2193
2443,2290
2444,2173
2445,2035
2446,2192
2447,2327
2448,2239
2449,2113
2450,2266
2451,2399
2452,2352
2453,2218
2454,2384
2455,2559
2456,2559
2457,2386
2458,2480
2459,2635
2460,2659
2461,2478
2462,2517
2463,2703
2464,2737
2465,2534
2466,2480
2467,2615
2468,2643
2469,2383
2470,2197
2471,2259
2472,2254
2473,2047
2474,1850
2475,1943
2476,1989
2477,1831
2478,1622
2479,1716
2480,1839
2481,1746
2482,1535
2483,1600
2484,1736
2485,1730
2486,1517
2487,1535
2488,1675
2489,1705
2490,1520
2491,1501
2492,1684
2493,1769
2494,1593
2495,1499
2496,1673
2497,1807
2498,1673
2499,1517
2500,1659
2501,1744
2502,1649
2503,1497
2504,1654
2505,1840
2506,1785
2507,1575
2508,1646
2509,1799
2510,1801
2511,1591
2512,1625
2513,1793
2514,1837
2515,1650
2516,1621
2517,1793
2518,1872
2519,1680
2520,1591
2521,1750
2522,1854
2523,1723
2524,1559
2525,1734
2526,1869
2527,1745
2528,1555
2529,1698
2530,1872
2531,1812
2532,1590
2533,1673
2534,1819
2535,1814
2536,1600
2537,1637
2538,1825
2539,1847
2540,1649
2541,1627
2542,1787
2543,1862
2544,1680
2545,1584
2546,1763
2547,1867
2548,1713
2549,1591
2550,1754
2551,1914
2552,1795
2553,1600
2554,1727
2555,1870
2556,1791
2557,1585
2558,1680
2559,1884
2560,1858
2561,1635
2562,1671
2563,1865
2564,1927
2565,1687
2566,1648
2567,1814
2568,1879
2569,1703
2570,1637
2571,1820
2572,1946
2573,1788
2574,1623
2575,1770
2576,1902
2577,1793
2578,1615
2579,1756
2580,1942
2581,1855
2582,1619
2583,1725
2584,1914
2585,1903
2586,1669
2587,1714
2588,1894
2589,1911
2590,1701
2591,1691
2592,1882
2593,1950
2594,1746
2595,1670
2596,1842
2597,1965
2598,1795
2599,1648
2600,1811
2601,1926
2602,1822
2603,1647
2604,1790
2605,1966
2606,1882
2607,1665
2608,1766
2609,1962
2610,1964
2611,1765
2612,1835
2613,2005
2614,2038
2615,1821
2616,1803
2617,2007
2618,2086
2619,1889
2620,1834
2621,2029
2622,2134
2623,1917
2624,1725
2625,1843
2626,1967
2627,1863
2628,1695
2629,1823
2630,1959
2631,1869
2632,1643
2633,1733
2634,1915
2635,1883
2636,1659
2637,1706
2638,1858
2639,1857
2640,1659
2641,1675
2642,1858
2643,1934
2644,1735
2645,1655
2646,1797
2647,1855
2648,1682
2649,1672
2650,2111
2651,2681
2652,3263
2653,3974
2654,4095
2655,4095
2656,4078
2657,3082
2658,2506
2659,2142
2660,1810
2661,1563
2662,1687
2663,1936
2664,1969
2665,1760
2666,1759
2667,1914
2668,1925
2669,1702
2670,1658
2671,1835
2672,1918
2673,1755
2674,1654
2675,1813
2676,1910
2677,1779
2678,1635
2679,1809
2680,1938
2681,1857
2682,1682
2683,1790
2684,1959
2685,1920
2686,1714
2687,1807
2688,1999
2689,2019
2690,1798
2691,1809
2692,2002
2693,2080
2694,1873
2695,1811
2696,1986
2697,2090
2698,1937
2699,1798
2700,2054
2701,2210
2702,2093
2703,1935
2704,2096
2705,2266
2706,2209
2707,2032
2708,2161
2709,2339
2710,2342
2711,2174
2712,2273
2713,2485
2714,2506
2715,2309
2716,2351
2717,2533
2718,2629
2719,2421
2720,2353
2721,2490
2722,2527
2723,2316
2724,2167
2725,2265
2726,2334
2727,2117
2728,1868
2729,1927
2730,2000
2731,1843
2732,1585
2733,1651
2734,1744
2735,1653
2736,1424
2737,1494
2738,1669
2739,1643
2740,1399
2741,1395
2742,1574
2743,1626
2744,1418
2745,1383
2746,1535
2747,1634
2748,1451
2749,1345
2750,1526
2751,1644
2752,1494
2753,1344
2754,1501
2755,1681
2756,1600
2757,1391
2758,1509
2759,1655
2760,1666
2761,1440
2762,1526
2763,1685
2764,1674
2765,1456
2766,1489
2767,1678
2768,1729
2769,1535
2770,1499
2771,1661
2772,1746
2773,1535
2774,1447
2775,1603
2776,1699
2777,1584
2778,1457
2779,1632
2780,1772
2781,1664
2782,1457
2783,1605
2784,1765
2785,1699
2786,1472
2787,1535
2788,1680
2789,1664
2790,1474
2791,1535
2792,1727
2793,1765
2794,1535
2795,1489
2796,1674
2797,1773
2798,1589
2799,1486
2800,1639
2801,1742
2802,1615
2803,1582
2804,1639
2805,1744
2806,1648
2807,1479
2808,1614
2809,1763
2810,1718
2811,1488
2812,1570
2813,1722
2814,1733
2815,1520
2816,1564
2817,1726
2818,1762
2819,1563
2820,1616
2821,1739
2822,1804
2823,1616
2824,1531
2825,1709
2826,1827
2827,1678
2828,1520
2829,1679
2830,1786
2831,1697
2832,1535
2833,1678
2834,1798
2835,1744
2836,1535
2837,1641
2838,1804
2839,1804
2840,1597
2841,1648
2842,1783
2843,1822
2844,1604
2845,1600
2846,1763
2847,1836
2848,1663
2849,1602
2850,1776
2851,1855
2852,1686
2853,1553
2854,1712
2855,1859
2856,1756
2857,1581
2858,1717
2859,1866
2860,1803
2861,1623
2862,1757
2863,1932
2864,1919
2865,1710
2866,1751
2867,1935
2868,1968
2869,1778
2870,1787
2871,1971
2872,2047
2873,1839
2874,1719
2875,1857
2876,1947
2877,1787
2878,1645
2879,1781
2880,1863
2881,1744
2882,1588
2883,1727
2884,1860
2885,1793
2886,1589
2887,1702
2888,1872
2889,1863
2890,1637
2891,1684
2892,1817
2893,1813
2894,1615
2895,1632
2896,1819
2897,1853
2898,1627
2899,1615
2900,1945
2901,2394
2902,2793
2903,3386
2904,4095
2905,4095
2906,4095
2907,3334
2908,2770
2909,2337
2910,1943
2911,1648
2912,1769
2913,1899
2914,1863
2915,1670
2916,1744
2917,1911
2918,1904
2919,1685
2920,1703
2921,1879
2922,1920
2923,1710
2924,1648
2925,1819
2926,1933
2927,1783
2928,1665
2929,1824
2930,1942
2931,1840
2932,1683
2933,1833
2934,1939
2935,1870
2936,1709
2937,1834
2938,2001
2939,1977
2940,1775
2941,1847
2942,2017
2943,2038
2944,1840
2945,1846
2946,2015
2947,2099
2948,1904
2949,1874
2950,2045
2951,2127
2952,1986
2953,1911
2954,2106
2955,2242
2956,2135
2957,1987
2958,2179
2959,2351
2960,2307
2961,2139
2962,2278
2963,2469
2964,2495
2965,2310
2966,2385
2967,2527
2968,2527
2969,2344
2970,2373
2971,2544
2972,2559
2973,2352
2974,2257
2975,2354
2976,2357
2977,2118
2978,1936
2979,2010
2980,2041
2981,1840
2982,1615
2983,1706
2984,1791
2985,1680
2986,1465
2987,1567
2988,1691
2989,1622
2990,1392
2991,1458
2992,1648
2993,1639
2994,1413
2995,1436
2996,1601
2997,1651
2998,1439
2999,1408
