Sample_Index,ADC_Value
0,1529
1,1905
2,1991
3,1638
4,1471
5,1788
6,1994
7,1697
8,1454
9,1733
10,2023
11,1790
12,1487
13,1682
14,2013
15,1872
16,1531
17,1650
18,2000
19,1936
20,1584
21,1619
22,1986
23,2020
24,1671
25,1607
26,1984
27,2118
28,1769
29,1600
30,1938
31,2156
32,1863
33,1633
34,1899
35,2191
36,1967
37,1677
38,1869
39,2192
40,2046
41,1733
42,1866
43,2241
44,2179
45,1830
46,1856
47,2238
48,2266
49,1920
50,1853
51,2222
52,2355
53,1997
54,1843
55,2177
56,2367
57,2057
58,1799
59,2047
60,2302
61,2061
62,1731
63,1901
64,2195
65,2011
66,1664
67,1754
68,2086
69,1963
70,1627
71,1638
72,1998
73,2013
74,1653
75,1585
76,1940
77,2060
78,1727
79,1583
80,1905
81,2096
82,1779
83,1557
84,1841
85,2128
86,1891
87,1587
88,1775
89,2109
90,1954
91,1621
92,1741
93,2105
94,2032
95,1692
96,1717
97,2086
98,2091
99,1734
100,1674
101,2031
102,2128
103,1792
104,1643
105,1970
106,2186
107,1888
108,1641
109,1897
110,2187
111,1951
112,1648
113,1839
114,2166
115,2015
116,1680
117,1785
118,2118
119,2064
120,1727
121,1749
122,2118
123,2124
124,1763
125,1706
126,2070
127,2176
128,1835
129,1662
130,1968
131,2185
132,1921
133,1677
134,1935
135,2181
136,1954
137,1686
138,1890
139,2201
140,2041
141,1719
142,1835
143,2192
144,2129
145,1759
146,1760
147,2138
148,2171
149,1817
150,1743
151,2093
152,2194
153,1876
154,1742
155,2057
156,2253
157,1951
158,1712
159,1967
160,2242
161,2020
162,1730
163,1927
164,2243
165,2089
166,1744
167,1854
168,2209
169,2169
170,1823
171,1830
172,2189
173,2209
174,1850
175,1763
176,2111
177,2225
178,1915
179,1772
180,2092
181,2320
182,2037
183,1808
184,2096
185,2374
186,2155
187,1856
188,2039
189,2387
190,2274
191,1942
192,2027
193,2346
194,2227
195,1840
196,1839
197,2201
198,2231
199,1872
200,1780
201,2128
202,2251
203,1911
204,1740
205,2038
206,2251
207,1965
208,1731
209,1979
210,2245
211,2019
212,1727
213,1899
214,2227
215,2079
216,1735
217,1799
218,2170
219,2243
220,2117
221,2425
222,3114
223,3375
224,2855
225,2559
226,2826
227,2795
228,2229
229,1802
230,1935
231,2091
232,1866
233,1714
234,2013
235,2314
236,2105
237,1798
238,1967
239,2289
240,2148
241,1803
242,1892
243,2252
244,2191
245,1839
246,1835
247,2175
248,2192
249,1871
250,1808
251,2155
252,2290
253,1966
254,1792
255,2095
256,2294
257,2030
258,1794
259,2045
260,2304
261,2087
262,1801
263,1987
264,2309
265,2181
266,1852
267,1942
268,2311
269,2261
270,1914
271,1922
272,2291
273,2323
274,1985
275,1903
276,2241
277,2367
278,2062
279,1902
280,2210
281,2429
282,2171
283,1936
284,2187
285,2482
286,2279
287,1958
288,2126
289,2448
290,2320
291,1979
292,2054
293,2399
294,2331
295,1954
296,1915
297,2247
298,2272
299,1909
300,1783
301,2094
302,2202
303,1876
304,1691
305,1975
306,2161
307,1875
308,1634
309,1869
310,2145
311,1923
312,1619
313,1794
314,2127
315,1991
316,1650
317,1732
318,2089
319,2034
320,1683
321,1683
322,2064
323,2118
324,1774
325,1670
326,2000
327,2134
328,1818
329,1641
330,1952
331,2187
332,1911
333,1661
334,1898
335,2158
336,1948
337,1648
338,1817
339,2143
340,2002
341,1662
342,1744
343,2112
344,2065
345,1707
346,1682
347,2030
348,2074
349,1750
350,1661
351,1996
352,2126
353,1803
354,1623
355,1919
356,2122
357,1846
358,1601
359,1840
360,2130
361,1920
362,1617
363,1781
364,2125
365,2000
366,1666
367,1735
368,2086
369,2047
370,1684
371,1667
372,2032
373,2099
374,1744
375,1625
376,1963
377,2122
378,1795
379,1609
380,1896
381,2133
382,1868
383,1611
384,1831
385,2123
386,1920
387,1611
388,1756
389,2072
390,1955
391,1627
392,1712
393,2067
394,2026
395,1661
396,1648
397,2014
398,2060
399,1723
400,1621
401,1984
402,2143
403,1809
404,1600
405,1879
406,2117
407,1859
408,1590
409,1825
410,2128
411,1950
412,1658
413,1833
414,2181
415,2076
416,1715
417,1777
418,2143
419,2128
420,1799
421,1775
422,2112
423,2130
424,1733
425,1585
426,1916
427,2064
428,1766
429,1573
430,1872
431,2098
432,1824
433,1535
434,1755
435,2057
436,1866
437,1535
438,1699
439,2037
440,1919
441,1573
442,1630
443,1999
444,1982
445,1594
446,1523
447,1879
448,2011
449,1801
450,1936
451,2559
452,3022
453,2768
454,2474
455,2605
456,2718
457,2266
458,1741
459,1725
460,1885
461,1697
462,1446
463,1679
464,2083
465,1986
466,1630
467,1669
468,2022
469,1997
470,1643
471,1602
472,1948
473,2025
474,1680
475,1535
476,1892
477,2035
478,1735
479,1535
480,1854
481,2111
482,1794
483,1561
484,1776
485,2079
486,1904
487,1615
488,1739
489,2070
490,1963
491,1631
492,1705
493,2091
494,2073
495,1697
496,1668
497,2015
498,2095
499,1777
500,1677
501,2002
502,2159
503,1850
504,1651
505,1949
506,2208
507,1965
508,1707
509,1936
510,2240
511,2062
512,1743
513,1887
514,2206
515,2125
516,1773
517,1834
518,2192
519,2177
520,1811
521,1774
522,2137
523,2210
524,1840
525,1676
526,1958
527,2135
528,1786
529,1535
530,1791
531,2017
532,1747
533,1466
534,1673
535,1936
536,1745
537,1430
538,1571
539,1905
540,1808
541,1467
542,1506
543,1870
544,1866
545,1492
546,1456
547,1807
548,1886
549,1563
550,1442
551,1781
552,1970
553,1655
554,1446
555,1714
556,1947
557,1724
558,1463
559,1693
560,1998
561,1808
562,1488
563,1623
564,1967
565,1870
566,1607
567,1554
568,1906
569,1894
570,1563
571,1520
572,1887
573,1981
574,1637
575,1499
576,1803
577,1951
578,1659
579,1458
580,1745
581,2009
582,1762
583,1478
584,1670
585,1951
586,1776
587,1468
588,1600
589,1930
590,1840
591,1491
592,1535
593,1923
594,1932
595,1562
596,1490
597,1867
598,1946
599,1603
600,1467
601,1793
602,1962
603,1666
604,1460
605,1740
606,1980
607,1749
608,1482
609,1693
610,1976
611,1812
612,1493
613,1629
614,1991
615,1906
616,1535
617,1569
618,1938
619,1950
620,1584
621,1519
622,1874
623,1968
624,1664
625,1526
626,1835
627,1993
628,1706
629,1500
630,1776
631,2027
632,1791
633,1506
634,1712
635,2030
636,1873
637,1535
638,1657
639,2015
640,1936
641,1575
642,1600
643,1970
644,1972
645,1611
646,1535
647,1920
648,2032
649,1726
650,1603
651,1943
652,2145
653,1859
654,1637
655,1902
656,2159
657,1939
658,1682
659,1897
660,2187
661,1968
662,1575
663,1659
664,2027
665,1965
666,1601
667,1595
668,1951
669,1971
670,1623
671,1553
672,1895
673,1986
674,1667
675,1523
676,1841
677,2005
678,1726
679,1515
680,1782
681,2032
682,1799
683,1493
684,1668
685,1976
686,1868
687,1673
688,2057
689,2736
690,2950
691,2672
692,2603
693,2815
694,2694
695,2119
696,1754
697,1873
698,1904
699,1573
700,1476
701,1863
702,2102
703,1830
704,1611
705,1858
706,2077
707,1851
708,1581
709,1780
710,2112
711,1946
712,1596
713,1690
714,2043
715,1997
716,1664
717,1686
718,2039
719,2064
720,1713
721,1650
722,1982
723,2081
724,1771
725,1627
726,1951
727,2161
728,1863
729,1627
730,1881
731,2137
732,1933
733,1670
734,1875
735,2213
736,2064
737,1715
738,1814
739,2151
740,2093
741,1770
742,1802
743,2187
744,2219
745,1863
746,1787
747,2133
748,2238
749,1934
750,1786
751,2125
752,2343
753,2058
754,1817
755,2083
756,2345
757,2128
758,1836
759,2004
760,2298
761,2146
762,1805
763,1867
764,2176
765,2085
766,1697
767,1678
768,2015
769,2018
770,1663
771,1568
772,1906
773,2018
774,1671
775,1486
776,1792
777,1984
778,1695
779,1451
780,1694
781,1973
782,1763
783,1472
784,1666
785,1979
786,1835
787,1511
788,1621
789,1983
790,1915
791,1563
792,1569
793,1939
794,1987
795,1631
796,1533
797,1877
798,1996
799,1679
800,1517
801,1827
802,2025
803,1757
804,1534
805,1766
806,2032
807,1834
808,1530
809,1711
810,2010
811,1879
812,1555
813,1648
814,1968
815,1920
816,1589
817,1597
818,1930
819,1961
820,1643
821,1525
822,1897
823,2011
824,1698
825,1523
826,1810
827,2019
828,1758
829,1521
830,1758
831,2003
832,1820
833,1535
834,1725
835,2021
836,1886
837,1535
838,1627
839,1980
840,1937
841,1587
842,1585
843,1946
844,1999
845,1662
846,1569
847,1923
848,2062
849,1727
850,1533
851,1825
852,2045
853,1791
854,1557
855,1792
856,2065
857,1861
858,1567
859,1727
860,2059
861,1920
862,1584
863,1664
864,2003
865,1962
866,1622
867,1619
868,1987
869,2054
870,1699
871,1594
872,1926
873,2053
874,1729
875,1562
876,1857
877,2067
878,1808
879,1577
880,1819
881,2112
882,1891
883,1583
884,1745
885,2089
886,1991
887,1697
888,1797
889,2160
890,2096
891,1735
892,1734
893,2106
894,2178
895,1840
896,1712
897,1984
898,2075
899,1754
900,1584
901,1891
902,2113
903,1819
904,1559
905,1791
906,2073
907,1865
908,1535
909,1697
910,2000
911,1886
912,1535
913,1635
914,1998
915,1967
916,1619
917,1602
918,1958
919,1984
920,1601
921,1469
922,1885
923,2231
924,2218
925,2337
926,2864
927,3214
928,2802
929,2416
930,2512
931,2544
932,2054
933,1515
934,1593
935,1962
936,1913
937,1637
938,1738
939,2093
940,2047
941,1680
942,1655
943,2003
944,2063
945,1733
946,1632
947,1939
948,2091
949,1785
950,1617
951,1905
952,2126
953,1872
954,1621
955,1840
956,2124
957,1949
958,1649
959,1798
960,2098
961,1989
962,1673
963,1735
964,2117
965,2094
966,1747
967,1726
968,2086
969,2151
970,1814
971,1707
972,2035
973,2193
974,1904
975,1712
976,1998
977,2262
978,2006
979,1743
980,1969
981,2277
982,2095
983,1785
984,1935
985,2255
986,2178
987,1855
988,1921
989,2295
990,2293
991,1929
992,1872
993,2230
994,2305
995,1953
996,1814
997,2128
998,2261
999,1931
1000,1698
1001,1937
1002,2159
1003,1903
1004,1610
1005,1803
1006,2067
1007,1870
1008,1535
1009,1669
1010,1985
1011,1867
1012,1519
1013,1581
1014,1922
1015,1906
1016,1567
1017,1534
1018,1891
1019,1970
1020,1628
1021,1493
1022,1831
1023,1994
1024,1699
1025,1503
1026,1780
1027,2027
1028,1791
1029,1517
1030,1734
1031,2016
1032,1840
1033,1527
1034,1682
1035,2015
1036,1911
1037,1567
1038,1617
1039,1998
1040,1988
1041,1632
1042,1590
1043,1935
1044,2016
1045,1685
1046,1535
1047,1876
1048,2057
1049,1759
1050,1535
1051,1809
1052,2043
1053,1785
1054,1515
1055,1718
1056,2007
1057,1842
1058,1525
1059,1665
1060,1999
1061,1918
1062,1583
1063,1621
1064,1963
1065,1955
1066,1616
1067,1579
1068,1914
1069,1994
1070,1646
1071,1517
1072,1834
1073,1989
1074,1712
1075,1514
1076,1792
1077,2032
1078,1787
1079,1503
1080,1710
1081,2003
1082,1847
1083,1527
1084,1661
1085,1993
1086,1907
1087,1573
1088,1618
1089,1955
1090,1956
1091,1616
1092,1561
1093,1903
1094,1995
1095,1677
1096,1531
1097,1854
1098,2029
1099,1728
1100,1505
1101,1776
1102,2015
1103,1814
1104,1598
1105,1833
1106,2130
1107,1954
1108,1633
1109,1763
1110,2097
1111,2030
1112,1712
1113,1747
1114,2083
1115,2026
1116,1648
1117,1584
1118,1925
1119,2000
1120,1666
1121,1520
1122,1834
1123,2000
1124,1707
1125,1483
1126,1754
1127,2029
1128,1787
1129,1488
1130,1690
1131,2000
1132,1839
1133,1535
1134,1629
1135,1968
1136,1886
1137,1507
1138,1488
1139,1844
1140,1965
1141,1866
1142,2154
1143,2815
1144,3143
1145,2720
1146,2383
1147,2537
1148,2512
1149,1958
1150,1511
1151,1666
1152,1920
1153,1757
1154,1535
1155,1783
1156,2112
1157,1949
1158,1621
1159,1728
1160,2071
1161,1999
1162,1648
1163,1665
1164,2032
1165,2035
1166,1687
1167,1624
1168,1975
1169,2063
1170,1744
1171,1599
1172,1927
1173,2112
1174,1825
1175,1610
1176,1867
1177,2123
1178,1904
1179,1638
1180,1835
1181,2146
1182,2000
1183,1667
1184,1762
1185,2109
1186,2045
1187,1725
1188,1765
1189,2123
1190,2137
1191,1803
1192,1744
1193,2093
1194,2197
1195,1879
1196,1742
1197,2067
1198,2279
1199,2002
1200,1776
1201,2031
1202,2287
1203,2082
1204,1808
1205,2009
1206,2310
1207,2169
1208,1856
1209,1957
1210,2288
1211,2215
1212,1855
1213,1856
1214,2202
1215,2209
1216,1841
1217,1743
1218,2065
1219,2139
1220,1777
1221,1599
1222,1889
1223,2069
1224,1769
1225,1527
1226,1777
1227,2023
1228,1808
1229,1515
1230,1693
1231,1987
1232,1835
1233,1486
1234,1589
1235,1949
1236,1895
1237,1555
1238,1574
1239,1927
1240,1947
1241,1602
1242,1535
1243,1904
1244,2021
1245,1705
1246,1535
1247,1859
1248,2045
1249,1769
1250,1535
1251,1795
1252,2047
1253,1826
1254,1535
1255,1727
1256,2060
1257,1919
1258,1573
1259,1666
1260,2000
1261,1943
1262,1616
1263,1629
1264,1981
1265,2005
1266,1661
1267,1574
1268,1914
1269,2047
1270,1726
1271,1535
1272,1839
1273,2043
1274,1762
1275,1520
1276,1761
1277,2032
1278,1835
1279,1535
1280,1713
1281,2035
1282,1904
1283,1576
1284,1666
1285,2015
1286,1961
1287,1611
1288,1616
1289,1966
1290,2000
1291,1664
1292,1577
1293,1903
1294,2023
1295,1725
1296,1569
1297,1859
1298,2059
1299,1783
1300,1535
1301,1783
1302,2064
1303,1842
1304,1535
1305,1719
1306,2066
1307,1941
1308,1629
1309,1744
1310,2121
1311,2089
1312,1733
1313,1715
1314,2070
1315,2117
1316,1796
1317,1739
1318,2068
1319,2160
1320,1797
1321,1584
1322,1872
1323,2084
1324,1802
1325,1535
1326,1769
1327,2043
1328,1840
1329,1520
1330,1684
1331,2015
1332,1879
1333,1535
1334,1616
1335,1970
1336,1934
1337,1597
1338,1597
1339,1955
1340,1993
1341,1631
1342,1491
1343,1789
1344,1919
1345,1723
1346,1783
1347,2406
1348,2951
1349,2853
1350,2559
1351,2702
1352,2915
1353,2519
1354,1918
1355,1786
1356,1935
1357,1779
1358,1495
1359,1657
1360,2059
1361,2032
1362,1668
1363,1637
1364,1963
1365,2006
1366,1680
1367,1584
1368,1904
1369,2063
1370,1745
1371,1535
1372,1849
1373,2059
1374,1802
1375,1558
1376,1802
1377,2102
1378,1897
1379,1590
1380,1740
1381,2065
1382,1949
1383,1613
1384,1678
1385,2038
1386,2006
1387,1659
1388,1629
1389,2007
1390,2081
1391,1744
1392,1626
1393,1951
1394,2097
1395,1797
1396,1623
1397,1922
1398,2157
1399,1892
1400,1652
1401,1884
1402,2179
1403,1989
1404,1687
1405,1840
1406,2179
1407,2072
1408,1733
1409,1731
1410,2163
1411,2139
1412,1789
1413,1751
1414,2112
1415,2177
1416,1838
1417,1710
1418,2023
1419,2157
1420,1811
1421,1603
1422,1855
1423,2063
1424,1787
1425,1505
1426,1727
1427,1973
1428,1744
1429,1401
1430,1525
1431,1847
1432,1730
1433,1379
1434,1441
1435,1801
1436,1771
1437,1419
1438,1373
1439,1731
1440,1786
1441,1458
1442,1344
1443,1665
1444,1810
1445,1509
1446,1319
1447,1597
1448,1831
1449,1585
1450,1329
1451,1553
1452,1839
1453,1650
1454,1344
1455,1486
1456,1813
1457,1709
1458,1366
1459,1415
1460,1776
1461,1744
1462,1391
1463,1344
1464,1710
1465,1776
1466,1419
1467,1279
1468,1604
1469,1760
1470,1462
1471,1253
1472,1515
1473,1741
1474,1489
1475,1243
1476,1456
1477,1751
1478,1559
1479,1237
1480,1367
1481,1694
1482,1586
1483,1247
1484,1285
1485,1633
1486,1630
1487,1294
1488,1243
1489,1591
1490,1664
1491,1322
1492,1199
1493,1502
1494,1658
1495,1357
1496,1155
1497,1417
1498,1648
1499,1424
1500,1168
1501,1377
1502,1647
1503,1461
1504,1145
1505,1282
1506,1621
1507,1530
1508,1191
1509,1222
1510,1565
1511,1535
1512,1209
1513,1159
1514,1509
1515,1590
1516,1266
1517,1136
1518,1455
1519,1631
1520,1365
1521,1191
1522,1474
1523,1712
1524,1465
1525,1202
1526,1409
1527,1702
1528,1535
1529,1236
1530,1323
1531,1584
1532,1456
1533,1110
1534,1151
1535,1481
1536,1456
1537,1106
1538,1059
1539,1380
1540,1460
1541,1141
1542,991
1543,1287
1544,1443
1545,1165
1546,969
1547,1235
1548,1471
1549,1233
1550,960
1551,1142
1552,1415
1553,1232
1554,894
1555,986
1556,1392
1557,1478
1558,1450
1559,1797
1560,2346
1561,2386
1562,1970
1563,1856
1564,2081
1565,1913
1566,1287
1567,933
1568,1151
1569,1342
1570,1140
1571,1016
1572,1296
1573,1525
1574,1289
1575,1011
1576,1199
1577,1477
1578,1328
1579,1019
1580,1130
1581,1439
1582,1373
1583,1057
1584,1092
1585,1415
1586,1424
1587,1111
1588,1067
1589,1405
1590,1456
1591,1185
1592,1040
1593,1339
1594,1505
1595,1253
1596,1072
1597,1323
1598,1573
1599,1354
1600,1098
1601,1276
1602,1573
1603,1422
1604,1135
1605,1241
1606,1565
1607,1498
1608,1200
1609,1232
1610,1568
1611,1578
1612,1226
1613,1220
1614,1568
1615,1671
1616,1373
1617,1233
1618,1535
1619,1741
1620,1438
1621,1253
1622,1500
1623,1731
1624,1525
1625,1281
1626,1444
1627,1727
1628,1586
1629,1296
1630,1391
1631,1684
1632,1599
1633,1259
1634,1266
1635,1579
1636,1562
1637,1221
1638,1146
1639,1441
1640,1524
1641,1222
1642,1075
1643,1349
1644,1521
1645,1280
1646,1064
1647,1281
1648,1524
1649,1328
1650,1085
1651,1253
1652,1535
1653,1408
1654,1108
1655,1212
1656,1557
1657,1508
1658,1191
1659,1207
1660,1535
1661,1577
1662,1259
1663,1225
1664,1533
1665,1635
1666,1351
1667,1214
1668,1503
1669,1678
1670,1431
1671,1247
1672,1488
1673,1727
1674,1517
1675,1269
1676,1438
1677,1734
1678,1600
1679,1301
1680,1408
1681,1728
1682,1664
1683,1357
1684,1378
1685,1709
1686,1741
1687,1424
1688,1355
1689,1679
1690,1781
1691,1487
1692,1347
1693,1623
1694,1807
1695,1568
1696,1374
1697,1616
1698,1863
1699,1654
1700,1392
1701,1535
1702,1853
1703,1726
1704,1424
1705,1510
1706,1823
1707,1787
1708,1484
1709,1489
1710,1825
1711,1840
1712,1527
1713,1453
1714,1775
1715,1882
1716,1599
1717,1455
1718,1731
1719,1926
1720,1683
1721,1485
1722,1717
1723,1969
1724,1783
1725,1525
1726,1697
1727,2000
1728,1870
1729,1561
1730,1655
1731,1975
1732,1943
1733,1637
1734,1648
1735,1987
1736,2054
1737,1772
1738,1727
1739,2057
1740,2169
1741,1859
1742,1712
1743,1999
1744,2219
1745,2013
1746,1794
1747,1975
1748,2160
1749,1920
1750,1648
1751,1809
1752,2126
1753,2000
1754,1690
1755,1766
1756,2085
1757,2035
1758,1730
1759,1735
1760,2055
1761,2093
1762,1783
1763,1715
1764,2019
1765,2150
1766,1870
1767,1712
1768,1975
1769,2165
1770,1897
1771,1631
1772,1867
1773,2251
1774,2295
1775,2353
1776,2800
1777,3351
1778,3158
1779,2691
1780,2695
1781,2863
1782,2522
1783,1922
1784,1746
1785,2043
1786,2171
1787,1939
1788,1917
1789,2236
1790,2347
1791,2043
1792,1878
1793,2151
1794,2339
1795,2097
1796,1887
1797,2115
1798,2362
1799,2176
1800,1902
1801,2038
1802,2346
1803,2255
1804,1968
1805,2035
1806,2371
1807,2349
1808,2032
1809,2021
1810,2353
1811,2407
1812,2111
1813,2017
1814,2326
1815,2464
1816,2195
1817,2039
1818,2315
1819,2511
1820,2269
1821,2065
1822,2284
1823,2551
1824,2368
1825,2102
1826,2256
1827,2557
1828,2465
1829,2178
1830,2246
1831,2559
1832,2542
1833,2233
1834,2224
1835,2547
1836,2613
1837,2307
1838,2229
1839,2558
1840,2702
1841,2406
1842,2234
1843,2485
1844,2687
1845,2441
1846,2209
1847,2401
1848,2647
1849,2445
1850,2148
1851,2263
1852,2542
1853,2405
1854,2081
1855,2119
1856,2429
1857,2384
1858,2058
1859,2027
1860,2351
1861,2398
1862,2093
1863,1984
1864,2283
1865,2412
1866,2130
1867,1956
1868,2223
1869,2435
1870,2207
1871,1981
1872,2197
1873,2448
1874,2267
1875,1989
1876,2135
1877,2436
1878,2333
1879,2021
1880,2088
1881,2412
1882,2385
1883,2071
1884,2059
1885,2383
1886,2441
1887,2142
1888,2032
1889,2336
1890,2479
1891,2196
1892,2015
1893,2274
1894,2480
1895,2238
1896,2012
1897,2218
1898,2480
1899,2306
1900,2018
1901,2146
1902,2443
1903,2339
1904,2032
1905,2080
1906,2400
1907,2384
1908,2062
1909,2028
1910,2352
1911,2423
1912,2125
1913,2013
1914,2315
1915,2454
1916,2170
1917,1990
1918,2250
1919,2463
1920,2238
1921,1998
1922,2193
1923,2453
1924,2282
1925,1990
1926,2126
1927,2433
1928,2342
1929,2015
1930,2071
1931,2395
1932,2384
1933,2064
1934,2031
1935,2368
1936,2431
1937,2117
1938,2000
1939,2302
1940,2453
1941,2167
1942,1968
1943,2237
1944,2448
1945,2207
1946,1962
1947,2165
1948,2430
1949,2269
1950,1987
1951,2128
1952,2429
1953,2337
1954,2013
1955,2055
1956,2383
1957,2383
1958,2096
1959,2087
1960,2428
1961,2517
1962,2192
1963,2053
1964,2357
1965,2525
1966,2261
1967,2106
1968,2362
1969,2544
1970,2259
1971,1969
1972,2142
1973,2407
1974,2253
1975,1959
1976,2082
1977,2389
1978,2286
1979,1959
1980,1983
1981,2294
1982,2279
1983,1967
1984,1939
1985,2281
1986,2342
1987,2030
1988,1909
1989,2208
1990,2349
1991,2047
1992,1834
1993,2047
1994,2271
1995,2153
1996,2110
1997,2607
1998,3261
1999,3279
2000,2897
2001,2875
2002,3154
2003,2896
2004,2305
2005,2061
2006,2192
2007,2128
2008,1838
2009,1869
2010,2247
2011,2349
2012,2042
2013,1920
2014,2192
2015,2332
2016,2039
2017,1845
2018,2114
2019,2353
2020,2124
2021,1865
2022,2055
2023,2323
2024,2170
2025,1883
2026,2001
2027,2324
2028,2240
2029,1925
2030,1957
2031,2285
2032,2288
2033,1971
2034,1930
2035,2253
2036,2341
2037,2023
2038,1903
2039,2191
2040,2351
2041,2082
2042,1889
2043,2155
2044,2386
2045,2166
2046,1910
2047,2112
2048,2405
2049,2254
2050,1952
2051,2067
2052,2370
2053,2288
2054,1971
2055,2015
2056,2357
2057,2359
2058,2030
2059,1978
2060,2313
2061,2387
2062,2095
2063,1973
2064,2279
2065,2435
2066,2159
2067,1949
2068,2187
2069,2391
2070,2153
2071,1875
2072,2037
2073,2289
2074,2106
2075,1771
2076,1857
2077,2145
2078,2058
2079,1730
2080,1747
2081,2065
2082,2057
2083,1728
2084,1676
2085,1995
2086,2073
2087,1744
2088,1616
2089,1901
2090,2064
2091,1799
2092,1617
2093,1872
2094,2103
2095,1873
2096,1619
2097,1810
2098,2094
2099,1936
2100,1645
2101,1746
2102,2064
2103,1996
2104,1674
2105,1624
2106,2032
2107,2033
2108,1719
2109,1667
2110,1979
2111,2047
2112,1749
2113,1630
2114,1907
2115,2086
2116,1813
2117,1610
2118,1850
2119,2095
2120,1859
2121,1590
2122,1778
2123,2065
2124,1898
2125,1597
2126,1712
2127,2034
2128,1954
2129,1621
2130,1648
2131,1968
2132,1985
2133,1677
2134,1627
2135,1914
2136,2003
2137,1712
2138,1584
2139,1881
2140,2039
2141,1766
2142,1561
2143,1808
2144,2039
2145,1813
2146,1554
2147,1744
2148,2031
2149,1897
2150,1595
2151,1699
2152,2015
2153,1929
2154,1606
2155,1638
2156,1983
2157,1989
2158,1662
2159,1599
2160,1933
2161,2029
2162,1699
2163,1568
2164,1857
2165,2035
2166,1764
2167,1535
2168,1797
2169,2042
2170,1833
2171,1566
2172,1740
2173,2036
2174,1891
2175,1574
2176,1681
2177,2019
2178,1957
2179,1622
2180,1637
2181,1957
2182,1980
2183,1671
2184,1642
2185,1981
2186,2096
2187,1794
2188,1655
2189,1955
2190,2132
2191,1870
2192,1671
2193,1925
2194,2187
2195,1968
2196,1667
2197,1786
2198,2032
2199,1887
2200,1593
2201,1681
2202,1987
2203,1926
2204,1603
2205,1605
2206,1937
2207,1951
2208,1614
2209,1535
2210,1872
2211,1990
2212,1693
2213,1535
2214,1819
2215,2000
2216,1760
2217,1535
2218,1750
2219,1957
2220,1719
2221,1493
2222,1798
2223,2335
2224,2507
2225,2448
2226,2640
2227,2941
2228,2718
2229,2251
2230,2074
2231,2190
2232,1993
2233,1520
2234,1424
2235,1803
2236,1995
2237,1744
2238,1615
2239,1901
2240,2091
2241,1809
2242,1581
2243,1795
2244,2043
2245,1843
2246,1574
2247,1744
2248,2043
2249,1923
2250,1615
2251,1683
2252,2002
2253,1957
2254,1646
2255,1662
2256,2012
2257,2054
2258,1725
2259,1647
2260,1946
2261,2069
2262,1776
2263,1627
2264,1904
2265,2109
2266,1854
2267,1627
2268,1863
2269,2141
2270,1939
2271,1671
2272,1840
2273,2138
2274,2007
2275,1695
2276,1798
2277,2138
2278,2091
2279,1771
2280,1778
2281,2123
2282,2159
2283,1840
2284,1759
2285,2087
2286,2224
2287,1928
2288,1776
2289,2059
2290,2246
2291,1982
2292,1752
2293,1980
2294,2233
2295,2020
2296,1729
2297,1872
2298,2168
2299,2015
2300,1673
2301,1728
2302,2035
2303,1968
2304,1616
2305,1598
2306,1917
2307,1938
2308,1601
2309,1505
2310,1817
2311,1922
2312,1622
2313,1469
2314,1761
2315,1963
2316,1696
2317,1459
2318,1695
2319,1947
2320,1747
2321,1462
2322,1625
2323,1929
2324,1827
2325,1517
2326,1590
2327,1920
2328,1885
2329,1574
2330,1575
2331,1904
2332,1943
2333,1631
2334,1531
2335,1858
2336,2000
2337,1707
2338,1522
2339,1795
2340,1985
2341,1717
2342,1487
2343,1722
2344,1973
2345,1781
2346,1501
2347,1677
2348,1984
2349,1855
2350,1525
2351,1600
2352,1936
2353,1886
2354,1552
2355,1535
2356,1872
2357,1915
2358,1600
2359,1503
2360,1808
2361,1947
2362,1666
2363,1485
2364,1757
2365,1954
2366,1712
2367,1475
2368,1707
2369,1984
2370,1799
2371,1489
2372,1637
2373,1943
2374,1834
2375,1527
2376,1615
2377,1963
2378,1924
2379,1579
2380,1535
2381,1874
2382,1936
2383,1619
2384,1520
2385,1859
2386,1999
2387,1683
2388,1495
2389,1791
2390,2003
2391,1746
2392,1488
2393,1723
2394,2002
2395,1819
2396,1519
2397,1664
2398,1968
2399,1863
2400,1535
2401,1628
2402,1946
2403,1904
2404,1583
2405,1578
2406,1923
2407,1974
2408,1625
2409,1519
2410,1849
2411,1997
2412,1706
2413,1533
2414,1811
2415,2031
2416,1789
2417,1535
2418,1754
2419,2034
2420,1872
2421,1610
2422,1781
2423,2122
2424,2000
2425,1663
2426,1729
2427,2079
2428,2047
2429,1728
2430,1727
2431,2057
2432,2073
2433,1697
2434,1555
2435,1865
2436,2021
2437,1733
2438,1535
2439,1802
2440,2015
2441,1758
2442,1495
2443,1709
2444,2000
2445,1811
2446,1509
2447,1664
2448,1972
2449,1871
2450,1535
2451,1616
2452,1965
2453,1932
2454,1571
2455,1494
2456,1823
2457,1969
2458,1844
2459,2018
2460,2630
2461,3013
2462,2736
2463,2450
2464,2533
2465,2639
2466,2160
2467,1639
2468,1642
2469,1842
2470,1712
2471,1494
2472,1713
2473,2066
2474,1974
2475,1633
2476,1670
2477,1995
2478,1987
2479,1653
2480,1622
2481,1962
2482,2022
2483,1705
2484,1585
2485,1898
2486,2069
2487,1775
2488,1586
2489,1847
2490,2066
2491,1841
2492,1613
2493,1831
2494,2109
2495,1929
2496,1641
2497,1778
2498,2107
2499,2013
2500,1685
2501,1740
2502,2076
2503,2070
2504,1749
2505,1728
2506,2078
2507,2154
2508,1833
2509,1713
2510,2032
2511,2192
2512,1905
2513,1713
2514,1995
2515,2235
2516,1999
2517,1748
2518,1968
2519,2243
2520,2090
2521,1796
2522,1936
2523,2249
2524,2159
2525,1817
2526,1871
2527,2212
2528,2205
2529,1878
2530,1835
2531,2158
2532,2217
2533,1872
2534,1728
2535,2006
2536,2137
2537,1824
2538,1609
2539,1847
2540,2039
2541,1782
2542,1513
2543,1727
2544,2000
2545,1823
2546,1509
2547,1644
2548,1954
2549,1856
2550,1516
2551,1554
2552,1901
2553,1897
2554,1567
2555,1520
2556,1856
2557,1936
2558,1635
2559,1514
2560,1829
2561,1991
2562,1715
2563,1520
2564,1796
2565,2027
2566,1790
2567,1535
2568,1739
2569,2026
2570,1845
2571,1531
2572,1666
2573,2000
2574,1920
2575,1582
2576,1613
2577,1946
2578,1937
2579,1614
2580,1577
2581,1901
2582,1973
2583,1663
2584,1535
2585,1840
2586,2006
2587,1730
2588,1528
2589,1792
2590,2022
2591,1792
2592,1526
2593,1723
2594,2023
2595,1856
2596,1534
2597,1648
2598,1973
2599,1891
2600,1561
2601,1600
2602,1937
2603,1938
2604,1601
2605,1556
2606,1899
2607,1982
2608,1668
2609,1535
2610,1849
2611,1978
2612,1727
2613,1523
2614,1792
2615,2042
2616,1808
2617,1535
2618,1728
2619,2020
2620,1865
2621,1567
2622,1685
2623,2021
2624,1948
2625,1603
2626,1628
2627,1977
2628,1975
2629,1638
2630,1587
2631,1931
2632,2023
2633,1711
2634,1568
2635,1872
2636,2047
2637,1771
2638,1566
2639,1811
2640,2054
2641,1823
2642,1535
2643,1743
2644,2041
2645,1887
2646,1582
2647,1687
2648,2030
2649,1957
2650,1615
2651,1641
2652,1995
2653,2011
2654,1678
2655,1613
2656,1949
2657,2037
2658,1712
2659,1568
2660,1898
2661,2115
2662,1852
2663,1658
2664,1930
2665,2176
2666,1943
2667,1671
2668,1863
2669,2159
2670,2031
2671,1734
2672,1808
2673,2098
2674,1983
2675,1626
2676,1652
2677,2008
2678,2021
2679,1673
2680,1607
2681,1936
2682,2025
2683,1703
2684,1558
2685,1854
2686,2034
2687,1750
2688,1520
2689,1762
2690,2025
2691,1810
2692,1535
2693,1727
2694,2011
2695,1835
2696,1475
2697,1600
2698,2061
2699,2224
2700,2192
2701,2480
2702,3022
2703,3015
2704,2496
2705,2319
2706,2496
2707,2350
2708,1744
2709,1415
2710,1701
2711,1957
2712,1779
2713,1623
2714,1887
2715,2130
2716,1903
2717,1616
2718,1793
2719,2096
2720,1937
2721,1616
2722,1722
2723,2061
2724,1979
2725,1637
2726,1659
2727,2014
2728,2045
2729,1722
2730,1652
2731,1978
2732,2081
2733,1773
2734,1627
2735,1922
2736,2119
2737,1844
2738,1638
2739,1873
2740,2151
2741,1943
2742,1671
2743,1850
2744,2157
2745,2014
2746,1700
2747,1807
2748,2170
2749,2122
2750,1776
2751,1786
2752,2139
2753,2170
2754,1840
2755,1769
2756,2096
2757,2218
2758,1909
2759,1775
2760,2089
2761,2288
2762,2007
2763,1781
2764,2037
2765,2309
2766,2103
2767,1808
2768,1978
2769,2286
2770,2146
2771,1814
2772,1888
2773,2215
2774,2128
2775,1777
2776,1798
2777,2031
2778,2032
2779,1677
2780,1573
2781,1881
2782,1981
2783,1654
2784,1483
2785,1776
2786,1967
2787,1687
2788,1457
2789,1702
2790,1957
2791,1744
2792,1444
2793,1619
2794,1927
2795,1797
2796,1472
2797,1567
2798,1920
2799,1865
2800,1519
2801,1520
2802,1871
2803,1907
2804,1584
2805,1498
2806,1839
2807,1955
2808,1658
2809,1495
2810,1793
2811,1984
2812,1712
2813,1482
2814,1724
2815,1989
2816,1786
2817,1488
2818,1658
2819,1979
2820,1849
2821,1505
2822,1584
2823,1912
2824,1863
2825,1522
2826,1519
2827,1862
2828,1903
2829,1589
2830,1498
2831,1825
2832,1935
2833,1638
2834,1472
2835,1761
2836,1957
2837,1684
2838,1438
2839,1665
2840,1937
2841,1746
2842,1455
2843,1630
2844,1935
2845,1813
2846,1473
2847,1553
2848,1878
2849,1838
2850,1493
2851,1484
2852,1837
2853,1889
2854,1559
2855,1467
2856,1791
2857,1926
2858,1623
2859,1447
2860,1743
2861,1955
2862,1693
2863,1451
2864,1683
2865,1963
2866,1759
2867,1450
2868,1603
2869,1927
2870,1813
2871,1483
2872,1555
2873,1898
2874,1869
2875,1531
2876,1515
2877,1863
2878,1916
2879,1589
2880,1488
2881,1811
2882,1929
2883,1621
2884,1449
2885,1741
2886,1950
2887,1707
2888,1462
2889,1695
2890,1970
2891,1787
2892,1495
2893,1637
2894,1933
2895,1821
2896,1498
2897,1575
2898,1922
2899,1898
2900,1555
2901,1527
2902,1857
2903,1917
2904,1606
2905,1510
2906,1836
2907,1967
2908,1671
2909,1494
2910,1796
2911,2033
2912,1808
2913,1594
2914,1813
2915,2079
2916,1879
2917,1599
2918,1749
2919,2090
2920,1969
2921,1621
2922,1635
2923,1920
2924,1872
2925,1558
2926,1535
2927,1891
2928,1923
2929,1590
2930,1479
2931,1785
2932,1920
2933,1622
2934,1433
2935,1716
2936,1941
2937,1693
2938,1441
2939,1655
2940,1926
2941,1751
2942,1455
2943,1584
2944,1859
2945,1728
2946,1435
2947,1629
2948,2195
2949,2475
2950,2420
2951,2544
2952,2861
2953,2771
2954,2352
2955,2065
2956,2106
2957,1971
2958,1526
2959,1334
2960,1680
2961,1970
2962,1782
2963,1558
2964,1758
2965,2019
2966,1834
2967,1533
2968,1664
2969,1979
2970,1882
2971,1565
2972,1614
2973,1968
2974,1946
2975,1618
2976,1591
2977,1917
2978,1997
2979,1680
2980,1582
2981,1895
2982,2035
2983,1745
2984,1561
2985,1834
2986,2062
2987,1835
2988,1599
2989,1810
2990,2096
2991,1917
2992,1642
2993,1780
2994,2103
2995,2010
2996,1690
2997,1744
2998,2092
2999,2087
3000,1759
3001,1740
3002,2078
3003,2144
3004,1839
3005,1733
3006,2035
3007,2215
3008,1925
3009,1731
3010,1990
3011,2235
3012,2026
3013,1788
3014,1989
3015,2277
3016,2118
3017,1826
3018,1943
3019,2251
3020,2134
3021,1796
3022,1823
3023,2141
3024,2106
3025,1744
3026,1680
3027,2000
3028,2057
3029,1698
3030,1535
3031,1831
3032,1968
3033,1680
3034,1488
3035,1749
3036,1974
3037,1732
3038,1465
3039,1659
3040,1937
3041,1782
3042,1488
3043,1616
3044,1931
3045,1856
3046,1535
3047,1597
3048,1922
3049,1909
3050,1584
3051,1535
3052,1872
3053,1963
3054,1651
3055,1535
3056,1855
3057,2005
3058,1727
3059,1533
3060,1790
3061,2021
3062,1804
3063,1557
3064,1747
3065,2019
3066,1856
3067,1575
3068,1689
3069,2001
3070,1913
3071,1595
3072,1629
3073,1971
3074,1975
3075,1651
3076,1616
3077,1935
3078,1995
3079,1693
3080,1568
3081,1861
3082,2025
3083,1751
3084,1563
3085,1815
3086,2046
3087,1821
3088,1559
3089,1749
3090,2022
3091,1879
3092,1583
3093,1695
3094,2015
3095,1938
3096,1616
3097,1647
3098,1981
3099,1985
3100,1664
3101,1605
3102,1926
3103,2013
3104,1716
3105,1594
3106,1882
3107,2063
3108,1781
3109,1582
3110,1838
3111,2085
3112,1859
3113,1599
3114,1786
3115,2075
3116,1919
3117,1609
3118,1719
3119,2032
3120,1968
3121,1646
3122,1677
3123,2013
3124,2019
3125,1699
3126,1654
3127,1962
3128,2059
3129,1762
3130,1642
3131,1934
3132,2112
3133,1846
3134,1636
3135,1875
3136,2116
3137,1890
3138,1630
3139,1808
3140,2111
3141,1954
3142,1650
3143,1759
3144,2076
3145,2010
3146,1693
3147,1714
3148,2031
3149,2054
3150,1743
3151,1685
3152,2017
3153,2112
3154,1794
3155,1651
3156,1947
3157,2127
3158,1871
3159,1677
3160,1936
3161,2208
3162,2019
3163,1765
3164,1920
3165,2187
3166,2069
3167,1781
3168,1905
3169,2243
3170,2157
3171,1775
3172,1728
3173,2019
3174,2047
3175,1735
3176,1687
3177,1987
3178,2084
3179,1783
3180,1642
3181,1909
3182,2096
3183,1830
3184,1618
3185,1853
3186,2097
3187,1887
3188,1616
3189,1783
3190,2096
3191,1965
3192,1648
3193,1712
3194,1991
3195,1903
3196,1658
3197,1856
3198,2479
3199,2815
3200,2697
3201,2661
3202,2874
3203,2890
3204,2448
3205,2059
3206,2041
3207,2005
3208,1686
3209,1511
3210,1822
3211,2134
3212,1952
3213,1681
3214,1840
3215,2125
3216,1970
3217,1663
3218,1754
3219,2071
3220,2011
3221,1693
3222,1702
3223,2035
3224,2065
3225,1741
3226,1666
3227,1999
3228,2109
3229,1795
3230,1637
3231,1918
3232,2113
3233,1865
3234,1660
3235,1889
3236,2143
3237,1939
3238,1667
3239,1838
3240,2137
3241,2000
3242,1706
3243,1802
3244,2134
3245,2094
3246,1759
3247,1760
3248,2110
3249,2142
3250,1829
3251,1757
3252,2077
3253,2193
3254,1904
3255,1753
3256,2034
3257,2236
3258,1978
3259,1762
3260,1995
3261,2252
3262,2068
3263,1786
3264,1945
3265,2243
3266,2137
3267,1792
3268,1911
3269,2235
3270,2165
3271,1811
3272,1782
3273,2074
3274,2083
3275,1735
3276,1635
3277,1910
3278,2003
3279,1686
3280,1503
3281,1766
3282,1937
3283,1683
3284,1458
3285,1675
3286,1921
3287,1724
3288,1425
3289,1587
3290,1899
3291,1773
3292,1453
3293,1527
3294,1860
3295,1823
3296,1488
3297,1488
3298,1828
3299,1875
3300,1569
3301,1479
3302,1770
3303,1891
3304,1623
3305,1472
3306,1751
3307,1936
3308,1680
3309,1446
3310,1670
3311,1926
3312,1761
3313,1487
3314,1641
3315,1937
3316,1811
3317,1491
3318,1572
3319,1889
3320,1850
3321,1520
3322,1517
3323,1841
3324,1879
3325,1577
3326,1477
3327,1796
3328,1915
3329,1616
3330,1454
3331,1728
3332,1909
3333,1665
3334,1440
3335,1677
3336,1929
3337,1730
3338,1445
3339,1601
3340,1895
3341,1776
3342,1472
3343,1535
3344,1877
3345,1857
3346,1534
3347,1505
3348,1840
3349,1875
3350,1558
3351,1455
3352,1787
3353,1910
3354,1626
3355,1477
3356,1727
3357,1909
3358,1664
3359,1438
3360,1659
3361,1918
3362,1749
3363,1467
3364,1606
3365,1901
3366,1802
3367,1486
3368,1554
3369,1886
3370,1856
3371,1535
3372,1518
3373,1840
3374,1895
3375,1600
3376,1488
3377,1786
3378,1917
3379,1645
3380,1482
3381,1734
3382,1929
3383,1703
3384,1475
3385,1686
3386,1931
3387,1757
3388,1488
3389,1639
3390,1936
3391,1840
3392,1526
3393,1586
3394,1911
3395,1887
3396,1590
3397,1571
3398,1887
3399,1936
3400,1623
3401,1514
3402,1818
3403,1950
3404,1680
3405,1527
3406,1817
3407,2055
3408,1854
3409,1633
3410,1824
3411,2069
3412,1890
3413,1639
3414,1789
3415,2127
3416,2011
3417,1661
3418,1655
3419,1937
3420,1914
3421,1602
3422,1589
3423,1899
3424,1949
3425,1646
3426,1523
3427,1813
3428,1955
3429,1680
3430,1510
3431,1758
3432,1965
3433,1744
3434,1515
3435,1727
3436,2001
3437,1824
3438,1517
3439,1630
3440,1904
3441,1793
3442,1535
3443,1761
3444,2365
3445,2672
3446,2559
3447,2559
3448,2781
3449,2719
3450,2300
3451,2000
3452,2063
3453,1970
3454,1593
3455,1413
3456,1734
3457,2009
3458,1826
3459,1600
3460,1779
3461,2026
3462,1874
3463,1611
3464,1729
3465,2032
3466,1941
3467,1635
3468,1669
3469,2000
3470,1984
3471,1666
3472,1639
3473,1969
3474,2055
3475,1744
3476,1629
3477,1921
3478,2080
3479,1811
3480,1632
3481,1886
3482,2113
3483,1906
3484,1665
3485,1847
3486,2128
3487,1968
3488,1639
3489,1808
3490,2123
3491,2047
3492,1745
3493,1789
3494,2144
3495,2133
3496,1808
3497,1769
3498,2091
3499,2171
3500,1887
3501,1769
3502,2089
3503,2271
3504,2000
3505,1814
3506,2073
3507,2307
3508,2085
3509,1824
3510,2000
3511,2301
3512,2151
3513,1858
3514,1968
3515,2275
3516,2183
3517,1855
3518,1866
3519,2186
3520,2161
3521,1814
3522,1729
3523,2000
3524,2070
3525,1760
3526,1617
3527,1891
3528,2032
3529,1766
3530,1571
3531,1807
3532,2035
3533,1818
3534,1535
3535,1711
3536,1973
3537,1852
3538,1585
3539,1702
3540,1981
3541,1916
3542,1625
3543,1666
3544,2005
3545,2006
3546,1683
3547,1631
3548,1946
3549,2045
3550,1753
3551,1617
3552,1915
3553,2091
3554,1815
3555,1619
3556,1843
3557,2077
3558,1873
3559,1633
3560,1814
3561,2101
3562,1939
3563,1645
3564,1745
3565,2035
3566,1973
3567,1678
3568,1697
3569,2032
3570,2032
3571,1709
3572,1649
3573,1971
3574,2062
3575,1776
3576,1647
3577,1920
3578,2097
3579,1830
3580,1638
3581,1871
3582,2096
3583,1885
3584,1635
3585,1799
3586,2067
3587,1936
3588,1650
3589,1747
3590,2075
3591,2000
3592,1679
3593,1690
3594,2030
3595,2047
3596,1745
3597,1678
3598,1979
3599,2091
3600,1795
3601,1664
3602,1936
3603,2117
3604,1841
3605,1641
3606,1870
3607,2096
3608,1890
3609,1648
3610,1821
3611,2110
3612,1968
3613,1670
3614,1772
3615,2093
3616,2025
3617,1715
3618,1737
3619,2039
3620,2067
3621,1754
3622,1689
3623,2026
3624,2112
3625,1793
3626,1661
3627,1940
3628,2119
3629,1871
3630,1665
3631,1894
3632,2145
3633,1929
3634,1665
3635,1825
3636,2111
3637,1981
3638,1686
3639,1782
3640,2096
3641,2046
3642,1727
3643,1729
3644,2063
3645,2079
3646,1769
3647,1712
3648,2046
3649,2191
3650,1917
3651,1781
3652,2047
3653,2210
3654,1955
3655,1749
3656,1984
3657,2256
3658,2064
3659,1763
3660,1872
3661,2117
3662,1974
3663,1687
3664,1776
3665,2075
3666,2007
3667,1697
3668,1711
3669,2032
3670,2039
3671,1701
3672,1631
3673,1936
3674,2061
3675,1765
3676,1615
3677,1891
3678,2085
3679,1840
3680,1621
3681,1841
3682,2065
3683,1828
3684,1553
3685,1796
3686,2305
3687,2487
3688,2480
3689,2735
3690,3111
3691,2900
3692,2442
3693,2269
3694,2349
3695,2127
3696,1610
3697,1457
3698,1808
3699,2017
3700,1797
3701,1669
3702,1936
3703,2109
3704,1846
3705,1627
3706,1837
3707,2067
3708,1884
3709,1622
3710,1781
3711,2087
3712,1962
3713,1665
3714,1740
3715,2055
3716,2003
3717,1705
3718,1712
3719,2045
3720,2081
3721,1759
3722,1670
3723,1994
3724,2115
3725,1813
3726,1661
3727,1938
3728,2145
3729,1889
3730,1681
3731,1911
3732,2176
3733,1979
3734,1699
3735,1841
3736,2148
3737,2039
3738,1756
3739,1839
3740,2162
3741,2128
3742,1815
3743,1855
3744,2148
3745,2209
3746,1904
3747,1808
3748,2109
3749,2243
3750,1968
3751,1823
3752,2097
3753,2282
3754,2043
3755,1832
3756,2041
3757,2272
3758,2089
3759,1805
3760,1917
3761,2173
3762,2044
3763,1713
3764,1755
3765,2032
3766,1964
3767,1619
3768,1600
3769,1899
3770,1933
3771,1614
3772,1510
3773,1812
3774,1943
3775,1647
3776,1460
3777,1713
3778,1914
3779,1677
3780,1445
3781,1653
3782,1910
3783,1744
3784,1469
3785,1617
3786,1903
3787,1807
3788,1495
3789,1567
3790,1894
3791,1863
3792,1553
3793,1535
3794,1873
3795,1923
3796,1616
3797,1503
3798,1810
3799,1955
3800,1667
3801,1535
3802,1758
3803,1952
3804,1730
3805,1501
3806,1712
3807,1959
3808,1776
3809,1488
3810,1623
3811,1923
3812,1823
3813,1510
3814,1565
3815,1901
3816,1857
3817,1522
3818,1491
3819,1820
3820,1871
3821,1535
3822,1439
3823,1741
3824,1872
3825,1610
3826,1442
3827,1695
3828,1917
3829,1666
3830,1414
3831,1626
3832,1898
3833,1715
3834,1428
3835,1571
3836,1881
3837,1786
3838,1456
3839,1499
3840,1819
3841,1813
3842,1488
3843,1447
3844,1760
3845,1836
3846,1530
3847,1422
3848,1718
3849,1862
3850,1584
3851,1392
3852,1652
3853,1875
3854,1643
3855,1395
3856,1600
3857,1870
3858,1686
3859,1386
3860,1505
3861,1825
3862,1741
3863,1418
3864,1454
3865,1788
3866,1791
3867,1458
3868,1410
3869,1738
3870,1808
3871,1506
3872,1389
3873,1678
3874,1823
3875,1534
3876,1335
3877,1613
3878,1842
3879,1600
3880,1331
3881,1522
3882,1798
3883,1648
3884,1360
3885,1483
3886,1802
3887,1698
3888,1360
3889,1399
3890,1742
3891,1728
3892,1407
3893,1360
3894,1691
3895,1770
3896,1479
3897,1392
3898,1708
3899,1885
3900,1601
3901,1401
3902,1655
3903,1883
3904,1657
3905,1409
3906,1613
3907,1872
3908,1665
3909,1326
3910,1413
3911,1715
3912,1646
3913,1323
3914,1328
3915,1657
3916,1638
3917,1309
3918,1252
3919,1571
3920,1740
3921,1329
3922,1202
3923,1504
3924,1682
3925,1391
3926,1182
3927,1427
3928,1647
3929,1414
3930,1141
3931,1292
3932,1564
3933,1472
3934,1351
3935,1761
3936,2371
3937,2525
3938,2262
3939,2171
3940,2380
3941,2241
3942,1666
3943,1322
3944,1427
3945,1434
3946,1171
3947,1106
3948,1452
3949,1647
3950,1373
3951,1175
3952,1409
3953,1636
3954,1414
3955,1141
3956,1307
3957,1598
3958,1445
3959,1167
3960,1267
3961,1583
3962,1505
3963,1189
3964,1215
3965,1535
3966,1535
3967,1217
3968,1151
3969,1488
3970,1585
3971,1264
3972,1126
3973,1422
3974,1613
3975,1327
3976,1133
3977,1369
3978,1616
3979,1406
3980,1154
3981,1331
3982,1629
3983,1490
3984,1211
3985,1319
3986,1632
3987,1575
3988,1260
3989,1291
3990,1618
3991,1638
3992,1333
3993,1281
3994,1601
3995,1711
3996,1424
3997,1300
3998,1587
3999,1762
4000,1506
4001,1321
4002,1535
4003,1787
4004,1581
4005,1306
4006,1471
4007,1758
4008,1607
4009,1279
4010,1341
4011,1629
4012,1535
4013,1200
4014,1194
4015,1568
4016,1490
4017,1152
4018,1079
4019,1370
4020,1471
4021,1172
4022,1023
4023,1297
4024,1535
4025,1215
4026,997
4027,1230
4028,1490
4029,1296
4030,1040
4031,1191
4032,1492
4033,1370
4034,1082
4035,1175
4036,1497
4037,1455
4038,1008
4039,1152
4040,1481
4041,1515
4042,1214
4043,1153
4044,1473
4045,1591
4046,1307
4047,1168
4048,1458
4049,1645
4050,1381
4051,1184
4052,1408
4053,1671
4054,1488
4055,1233
4056,1386
4057,1665
4058,1527
4059,1241
4060,1341
4061,1671
4062,1632
4063,1311
4064,1303
4065,1629
4066,1661
4067,1360
4068,1294
4069,1610
4070,1717
4071,1423
4072,1281
4073,1585
4074,1772
4075,1502
4076,1289
4077,1510
4078,1769
4079,1584
4080,1328
4081,1481
4082,1776
4083,1654
4084,1360
4085,1447
4086,1783
4087,1739
4088,1413
4089,1422
4090,1749
4091,1803
4092,1487
4093,1417
4094,1735
4095,1857
4096,1573
4097,1423
4098,1687
4099,1885
4100,1649
4101,1440
4102,1685
4103,1933
4104,1740
4105,1472
4106,1641
4107,1945
4108,1822
4109,1513
4110,1603
4111,1933
4112,1895
4113,1589
4114,1599
4115,1919
4116,1964
4117,1654
4118,1582
4119,1888
4120,2005
4121,1723
4122,1569
4123,1838
4124,2037
4125,1824
4126,1615
4127,1837
4128,2099
4129,1908
4130,1517
4131,1787
4132,2089
4133,1969
4134,1658
4135,1743
4136,2065
4137,2032
4138,1735
4139,1715
4140,2054
4141,2098
4142,1782
4143,1683
4144,1985
4145,2130
4146,1863
4147,1713
4148,1985
4149,2186
4150,1946
4151,1754
4152,2000
4153,2293
4154,2133
4155,1917
4156,2011
4157,2302
4158,2190
4159,1892
4160,1976
4161,2332
4162,2312
4163,1950
4164,1895
4165,2181
4166,2231
4167,1922
4168,1840
4169,2142
4170,2271
4171,1987
4172,1829
4173,2096
4174,2290
4175,2044
4176,1811
4177,2021
4178,2291
4179,2115
4180,1842
4181,1986
4182,2295
4183,2189
4184,1874
4185,1920
4186,2225
4187,2166
4188,1862
4189,1977
4190,2537
4191,2935
4192,2898
4193,2944
4194,3290
4195,3307
4196,2817
4197,2441
4198,2429
4199,2381
4200,1986
4201,1741
4202,2021
4203,2371
4204,2240
4205,1973
4206,2115
4207,2413
4208,2290
4209,1971
4210,2032
4211,2360
4212,2341
4213,2019
4214,2000
4215,2333
4216,2383
4217,2075
4218,1975
4219,2300
4220,2448
4221,2159
4222,1978
4223,2243
4224,2459
4225,2235
4226,2001
4227,2205
4228,2465
4229,2294
4230,2015
4231,2159
4232,2479
4233,2399
4234,2089
4235,2154
4236,2487
4237,2474
4238,2156
4239,2134
4240,2475
4241,2542
4242,2241
4243,2147
4244,2451
4245,2603
4246,2325
4247,2160
4248,2429
4249,2671
4250,2432
4251,2196
4252,2397
4253,2682
4254,2514
4255,2239
4256,2369
4257,2701
4258,2605
4259,2275
4260,2307
4261,2635
4262,2617
4263,2272
4264,2221
4265,2515
4266,2551
4267,2209
4268,2082
4269,2317
4270,2479
4271,2173
4272,1970
4273,2213
4274,2416
4275,2160
4276,1900
4277,2093
4278,2371
4279,2203
4280,1905
4281,2034
4282,2369
4283,2275
4284,1935
4285,1969
4286,2307
4287,2310
4288,1993
4289,1958
4290,2285
4291,2347
4292,2032
4293,1925
4294,2225
4295,2369
4296,2096
4297,1911
4298,2190
4299,2416
4300,2167
4301,1904
4302,2105
4303,2384
4304,2224
4305,1937
4306,2081
4307,2398
4308,2325
4309,1999
4310,2047
4311,2381
4312,2362
4313,2023
4314,1985
4315,2314
4316,2388
4317,2077
4318,1961
4319,2278
4320,2416
4321,2122
4322,1922
4323,2183
4324,2410
4325,2175
4326,1920
4327,2112
4328,2393
4329,2240
4330,1945
4331,2063
4332,2373
4333,2277
4334,1954
4335,1997
4336,2318
4337,2327
4338,2009
4339,1969
4340,2291
4341,2366
4342,2047
4343,1936
4344,2221
4345,2369
4346,2111
4347,1919
4348,2170
4349,2413
4350,2172
4351,1893
4352,2087
4353,2363
4354,2207
4355,1915
4356,2032
4357,2343
4358,2261
4359,1945
4360,1989
4361,2342
4362,2324
4363,1987
4364,1936
4365,2274
4366,2374
4367,2054
4368,1911
4369,2209
4370,2375
4371,2097
4372,1901
4373,2158
4374,2378
4375,2147
4376,1904
4377,2107
4378,2379
4379,2213
4380,1911
4381,2027
4382,2349
4383,2269
4384,1936
4385,1967
4386,2303
4387,2310
4388,1968
4389,1920
4390,2251
4391,2336
4392,2014
4393,1885
4394,2191
4395,2345
4396,2046
4397,1854
4398,2130
4399,2384
4400,2134
4401,1849
4402,2032
4403,2320
4404,2171
4405,1871
4406,1983
4407,2306
4408,2221
4409,1885
4410,1934
4411,2290
4412,2323
4413,2021
4414,1978
4415,2309
4416,2369
4417,2059
4418,1939
4419,2257
4420,2454
4421,2171
4422,1919
4423,2112
4424,2297
4425,2047
4426,1808
4427,2007
4428,2287
4429,2107
4430,1793
4431,1900
4432,2219
4433,2133
4434,1792
4435,1817
4436,2169
4437,2165
4438,1827
4439,1772
4440,2096
4441,2181
4442,1857
4443,1721
4444,1999
4445,2158
4446,1844
4447,1670
4448,2043
4449,2497
4450,2556
4451,2559
4452,2927
4453,3280
4454,2899
4455,2450
4456,2387
4457,2455
4458,2114
4459,1616
4460,1618
4461,2011
4462,2092
4463,1801
4464,1766
4465,2087
4466,2158
4467,1838
4468,1693
4469,1994
4470,2176
4471,1894
4472,1681
4473,1926
4474,2160
4475,1926
4476,1659
4477,1841
4478,2135
4479,1981
4480,1669
4481,1791
4482,2131
4483,2058
4484,1723
4485,1746
4486,2085
4487,2090
4488,1758
4489,1711
4490,2035
4491,2141
4492,1831
4493,1694
4494,1979
4495,2157
4496,1893
4497,1691
4498,1933
4499,2171
4500,1958
4501,1707
4502,1893
4503,2198
4504,2046
4505,1742
4506,1853
4507,2192
4508,2128
4509,1791
4510,1821
4511,2160
4512,2173
4513,1856
4514,1810
4515,2151
4516,2243
4517,1920
4518,1781
4519,2078
4520,2239
4521,1936
4522,1703
4523,1922
4524,2143
4525,1894
4526,1592
4527,1744
4528,2010
4529,1840
4530,1508
4531,1586
4532,1891
4533,1811
4534,1467
4535,1471
4536,1805
4537,1808
4538,1461
4539,1392
4540,1731
4541,1834
4542,1494
4543,1340
4544,1637
4545,1837
4546,1575
4547,1347
4548,1597
4549,1839
4550,1622
4551,1351
4552,1523
4553,1822
4554,1677
4555,1360
4556,1456
4557,1790
4558,1737
4559,1419
4560,1445
4561,1792
4562,1798
4563,1522
4564,1404
4565,1733
4566,1837
4567,1518
4568,1370
4569,1663
4570,1865
4571,1584
4572,1348
4573,1583
4574,1850
4575,1639
4576,1348
4577,1506
4578,1822
4579,1693
4580,1362
4581,1445
4582,1786
4583,1728
4584,1391
4585,1392
4586,1741
4587,1766
4588,1430
4589,1360
4590,1692
4591,1797
4592,1479
4593,1332
4594,1625
4595,1802
4596,1535
4597,1330
4598,1568
4599,1826
4600,1622
4601,1346
4602,1510
4603,1805
4604,1681
4605,1366
4606,1456
4607,1787
4608,1735
4609,1407
4610,1419
4611,1751
4612,1787
4613,1451
4614,1381
4615,1710
4616,1823
4617,1500
4618,1347
4619,1650
4620,1854
4621,1581
4622,1330
4623,1565
4624,1829
4625,1616
4626,1316
4627,1523
4628,1839
4629,1702
4630,1376
4631,1466
4632,1807
4633,1769
4634,1424
4635,1450
4636,1795
4637,1824
4638,1488
4639,1419
4640,1749
4641,1871
4642,1567
4643,1406
4644,1687
4645,1879
4646,1621
4647,1408
4648,1648
4649,1904
4650,1698
4651,1408
4652,1579
4653,1886
4654,1776
4655,1461
4656,1557
4657,1890
4658,1842
4659,1507
4660,1518
4661,1840
4662,1861
4663,1535
4664,1506
4665,1808
4666,1888
4667,1597
4668,1467
4669,1751
4670,1923
4671,1694
4672,1535
4673,1793
4674,2026
4675,1821
4676,1578
4677,1750
4678,2015
4679,1885
4680,1631
4681,1755
4682,2035
4683,1915
4684,1573
4685,1574
4686,1894
4687,1919
4688,1625
4689,1555
4690,1838
4691,1911
4692,1622
4693,1494
4694,1770
4695,1930
4696,1677
4697,1479
4698,1715
4699,1930
4700,1732
4701,1505
4702,1699
4703,1968
4704,1811
4705,1502
4706,1578
4707,1858
4708,1853
4709,1703
4710,1978
4711,2601
4712,2847
4713,2610
4714,2460
4715,2622
4716,2608
4717,2161
4718,1833
4719,1873
4720,1873
4721,1598
4722,1467
4723,1761
4724,2032
4725,1867
4726,1632
4727,1788
4728,2039
4729,1884
4730,1603
4731,1711
4732,2011
4733,1953
4734,1661
4735,1691
4736,2010
4737,2014
4738,1701
4739,1651
4740,1950
4741,2046
4742,1762
4743,1647
4744,1919
4745,2090
4746,1842
4747,1668
4748,1907
4749,2135
4750,1925
4751,1689
4752,1858
4753,2134
4754,2006
4755,1745
4756,1846
4757,2143
4758,2083
4759,1788
4760,1808
4761,2121
4762,2135
4763,1866
4764,1825
4765,2136
4766,2231
4767,1942
4768,1811
4769,2093
4770,2266
4771,2032
4772,1867
4773,2097
4774,2304
4775,2119
4776,1904
4777,2080
4778,2339
4779,2198
4780,1911
4781,2001
4782,2292
4783,2205
4784,1879
4785,1872
4786,2146
4787,2134
4788,1813
4789,1744
4790,2011
4791,2091
4792,1787
4793,1643
4794,1897
4795,2064
4796,1795
4797,1595
4798,1813
4799,2027
4800,1823
4801,1584
4802,1745
4803,2001
4804,1866
4805,1613
4806,1712
4807,1999
4808,1925
4809,1631
4810,1661
4811,1970
4812,1995
4813,1707
4814,1653
4815,1956
4816,2047
4817,1773
4818,1648
4819,1919
4820,2078
4821,1833
4822,1649
4823,1870
4824,2094
4825,1891
4826,1654
4827,1818
4828,2093
4829,1961
4830,1684
4831,1782
4832,2094
4833,2022
4834,1712
4835,1719
4836,2032
4837,2042
4838,1744
4839,1687
4840,1984
4841,2083
4842,1808
4843,1679
4844,1931
4845,2090
4846,1843
4847,1664
4848,1895
4849,2115
4850,1910
4851,1669
4852,1839
4853,2102
4854,1965
4855,1679
4856,1760
4857,2065
4858,2000
4859,1712
4860,1731
4861,2029
4862,2032
4863,1744
4864,1691
4865,1988
4866,2095
4867,1811
4868,1681
4869,1938
4870,2095
4871,1849
4872,1675
4873,1904
4874,2137
4875,1935
4876,1683
4877,1839
4878,2101
4879,1969
4880,1705
4881,1797
4882,2097
4883,2029
4884,1727
4885,1742
4886,2042
4887,2067
4888,1781
4889,1738
4890,2026
4891,2122
4892,1823
4893,1677
4894,1951
4895,2128
4896,1882
4897,1690
4898,1926
4899,2154
4900,1947
4901,1698
4902,1861
4903,2133
4904,2005
4905,1715
4906,1808
4907,2109
4908,2058
4909,1751
4910,1774
4911,2090
4912,2103
4913,1797
4914,1730
4915,2037
4916,2138
4917,1866
4918,1734
4919,1986
4920,2156
4921,1909
4922,1718
4923,1932
4924,2162
4925,1966
4926,1715
4927,1887
4928,2184
4929,2082
4930,1808
4931,1918
4932,2222
4933,2162
4934,1853
4935,1871
4936,2190
4937,2227
4938,1937
4939,1866
4940,2128
4941,2179
4942,1855
4943,1715
4944,1982
4945,2142
4946,1886
4947,1682
4948,1895
4949,2126
4950,1905
4951,1651
4952,1818
4953,2097
4954,1966
4955,1675
4956,1766
4957,2077
4958,2023
4959,1728
4960,1732
4961,2032
4962,2027
4963,1687
4964,1600
4965,1958
4966,2210
4967,2197
4968,2363
4969,2874
4970,3215
4971,2797
4972,2384
4973,2467
4974,2522
4975,2101
4976,1627
4977,1665
4978,1932
4979,1872
4980,1663
4981,1786
4982,2106
4983,2047
4984,1733
4985,1728
4986,2032
4987,2039
4988,1745
4989,1703
4990,1998
4991,2095
4992,1801
4993,1663
4994,1927
4995,2096
4996,1843
4997,1654
4998,1877
4999,2115
5000,1917
5001,1680
5002,1840
5003,2122
5004,1987
5005,1709
5006,1803
5007,2112
5008,2045
5009,1742
5010,1754
5011,2071
5012,2102
5013,1804
5014,1737
5015,2032
5016,2149
5017,1867
5018,1745
5019,2018
5020,2203
5021,1966
5022,1766
5023,1982
5024,2209
5025,2015
5026,1783
5027,1950
5028,2240
5029,2119
5030,1835
5031,1925
5032,2231
5033,2185
5034,1867
5035,1879
5036,2199
5037,2246
5038,1895
5039,1773
5040,2065
5041,2206
5042,1883
5043,1664
5044,1898
5045,2095
5046,1808
5047,1532
5048,1729
5049,1986
5050,1786
5051,1459
5052,1593
5053,1899
5054,1783
5055,1450
5056,1500
5057,1835
5058,1805
5059,1467
5060,1433
5061,1778
5062,1852
5063,1517
5064,1408
5065,1733
5066,1875
5067,1568
5068,1367
5069,1647
5070,1882
5071,1660
5072,1414
5073,1635
5074,1917
5075,1725
5076,1414
5077,1563
5078,1866
5079,1783
5080,1487
5081,1535
5082,1900
5083,1867
5084,1507
5085,1472
5086,1834
5087,1894
5088,1565
5089,1441
5090,1749
5091,1893
5092,1606
5093,1423
5094,1712
5095,1936
5096,1691
5097,1430
5098,1637
5099,1904
5100,1726
5101,1437
5102,1578
5103,1872
5104,1765
5105,1436
5106,1498
5107,1863
5108,1843
5109,1491
5110,1453
5111,1791
5112,1868
5113,1535
5114,1424
5115,1743
5116,1883
5117,1605
5118,1419
5119,1695
5120,1909
5121,1671
5122,1414
5123,1635
5124,1925
5125,1743
5126,1440
5127,1575
5128,1879
5129,1776
5130,1456
5131,1511
5132,1840
5133,1821
5134,1489
5135,1479
5136,1837
5137,1903
5138,1581
5139,1455
5140,1759
5141,1901
5142,1615
5143,1424
5144,1693
5145,1920
5146,1690
5147,1431
5148,1645
5149,1919
5150,1742
5151,1442
5152,1584
5153,1893
5154,1806
5155,1488
5156,1554
5157,1911
5158,1898
5159,1535
5160,1502
5161,1825
5162,1904
5163,1603
5164,1499
5165,1815
5166,1942
5167,1648
5168,1460
5169,1743
5170,1968
5171,1733
5172,1483
5173,1681
5174,1966
5175,1790
5176,1473
5177,1615
5178,1940
5179,1845
5180,1520
5181,1587
5182,1922
5183,1915
5184,1588
5185,1535
5186,1872
5187,1934
5188,1613
5189,1499
5190,1823
5191,1984
5192,1687
5193,1493
5194,1791
5195,2059
5196,1844
5197,1616
5198,1814
5199,2087
5200,1906
5201,1618
5202,1764
5203,2098
5204,2016
5205,1670
5206,1664
5207,1942
5208,1910
5209,1584
5210,1567
5211,1899
5212,1951
5213,1615
5214,1501
5215,1820
5216,1963
5217,1652
5218,1457
5219,1733
5220,1954
5221,1719
5222,1470
5223,1674
5224,1943
5225,1776
5226,1478
5227,1607
5228,1897
5229,1765
5230,1447
5231,1616
5232,2146
5233,2416
5234,2378
5235,2518
5236,2891
5237,2818
5238,2343
5239,2077
5240,2133
5241,2004
5242,1525
5243,1291
5244,1618
5245,1924
5246,1754
5247,1534
5248,1749
5249,2010
5250,1821
5251,1510
5252,1642
5253,1950
5254,1860
5255,1534
5256,1597
5257,1926
5258,1909
5259,1575
5260,1535
5261,1879
5262,1959
5263,1650
5264,1533
5265,1849
5266,2000
5267,1703
5268,1495
5269,1770
5270,2002
5271,1767
5272,1520
5273,1723
5274,1985
5275,1826
5276,1565
5277,1730
5278,2064
5279,1963
5280,1637
5281,1675
5282,2001
5283,2000
5284,1680
5285,1667
5286,2003
5287,2085
5288,1766
5289,1666
5290,1983
5291,2145
5292,1855
5293,1669
5294,1947
5295,2187
5296,1949
5297,1705
5298,1921
5299,2212
5300,2042
5301,1744
5302,1873
5303,2186
5304,2087
5305,1744
5306,1776
5307,2082
5308,2025
5309,1649
5310,1587
5311,1903
5312,1940
5313,1587
5314,1443
5315,1745
5316,1873
5317,1535
5318,1360
5319,1636
5320,1839
5321,1585
5322,1326
5323,1535
5324,1831
5325,1648
5326,1338
5327,1466
5328,1803
5329,1708
5330,1370
5331,1417
5332,1755
5333,1744
5334,1409
5335,1387
5336,1744
5337,1799
5338,1469
5339,1360
5340,1695
5341,1856
5342,1535
5343,1349
5344,1632
5345,1873
5346,1623
5347,1375
5348,1594
5349,1889
5350,1710
5351,1397
5352,1531
5353,1863
5354,1771
5355,1438
5356,1492
5357,1831
5358,1826
5359,1490
5360,1453
5361,1786
5362,1870
5363,1535
5364,1422
5365,1729
5366,1877
5367,1593
5368,1390
5369,1667
5370,1895
5371,1634
5372,1398
5373,1607
5374,1904
5375,1728
5376,1399
5377,1567
5378,1886
5379,1791
5380,1467
5381,1525
5382,1869
5383,1846
5384,1507
5385,1469
5386,1815
5387,1898
5388,1583
5389,1458
5390,1781
5391,1935
5392,1641
5393,1455
5394,1731
5395,1951
5396,1710
5397,1468
5398,1687
5399,1968
5400,1801
5401,1492
5402,1628
5403,1937
5404,1856
5405,1529
5406,1586
5407,1927
5408,1910
5409,1585
5410,1559
5411,1894
5412,1968
5413,1641
5414,1521
5415,1851
5416,2017
5417,1723
5418,1535
5419,1807
5420,2043
5421,1803
5422,1535
5423,1745
5424,2035
5425,1855
5426,1570
5427,1707
5428,2031
5429,1934
5430,1593
5431,1643
5432,1992
5433,1981
5434,1648
5435,1616
5436,1968
5437,2037
5438,1718
5439,1600
5440,1926
5441,2093
5442,1780
5443,1595
5444,1871
5445,2112
5446,1856
5447,1600
5448,1810
5449,2107
5450,1943
5451,1647
5452,1776
5453,2097
5454,1985
5455,1663
5456,1723
5457,2083
5458,2110
5459,1793
5460,1783
5461,2133
5462,2199
5463,1856
5464,1745
5465,2074
5466,2246
5467,1969
5468,1776
5469,2005
5470,2195
5471,1902
5472,1630
5473,1852
5474,2155
5475,1985
5476,1671
5477,1791
5478,2117
5479,2003
5480,1671
5481,1727
5482,2064
5483,2063
5484,1726
5485,1680
5486,2016
5487,2100
5488,1767
5489,1655
5490,1977
5491,2127
5492,1794
5493,1570
5494,1855
5495,2206
5496,2191
5497,2229
5498,2726
5499,3283
5500,3030
5501,2502
5502,2521
5503,2704
5504,2352
5505,1740
5506,1630
5507,1965
5508,2020
5509,1749
5510,1778
5511,2160
5512,2238
5513,1884
5514,1750
5515,2075
5516,2220
5517,1909
5518,1718
5519,2003
5520,2245
5521,1995
5522,1739
5523,1947
5524,2243
5525,2059
5526,1746
5527,1886
5528,2237
5529,2147
5530,1803
5531,1852
5532,2194
5533,2192
5534,1856
5535,1835
5536,2191
5537,2263
5538,1922
5539,1810
5540,2142
5541,2300
5542,1998
5543,1822
5544,2103
5545,2333
5546,2090
5547,1840
5548,2079
5549,2375
5550,2201
5551,1887
5552,2031
5553,2372
5554,2283
5555,1953
5556,2006
5557,2357
5558,2367
5559,2032
5560,2001
5561,2353
5562,2433
5563,2115
5564,1994
5565,2302
5566,2477
5567,2170
5568,1952
5569,2209
5570,2423
5571,2158
5572,1865
5573,2055
5574,2304
5575,2082
5576,1742
5577,1864
5578,2174
5579,2047
5580,1691
5581,1725
5582,2059
5583,2042
5584,1697
5585,1664
5586,2000
5587,2074
5588,1743
5589,1615
5590,1921
5591,2074
5592,1779
5593,1583
5594,1850
5595,2099
5596,1847
5597,1580
5598,1795
5599,2101
5600,1935
5601,1629
5602,1766
5603,2099
5604,1997
5605,1664
5606,1716
5607,2069
5608,2065
5609,1723
5610,1695
5611,2035
5612,2106
5613,1773
5614,1653
5615,1982
5616,2138
5617,1835
5618,1648
5619,1931
5620,2173
5621,1919
5622,1660
5623,1866
5624,2153
5625,1963
5626,1660
5627,1798
5628,2117
5629,2016
5630,1680
5631,1739
5632,2106
5633,2090
5634,1721
5635,1679
5636,2027
5637,2118
5638,1779
5639,1663
5640,1984
5641,2151
5642,1833
5643,1629
5644,1904
5645,2151
5646,1905
5647,1663
5648,1875
5649,2160
5650,1968
5651,1657
5652,1791
5653,2125
5654,2030
5655,1693
5656,1755
5657,2099
5658,2085
5659,1725
5660,1694
5661,2045
5662,2123
5663,1792
5664,1681
5665,1993
5666,2150
5667,1852
5668,1650
5669,1929
5670,2166
5671,1909
5672,1648
5673,1856
5674,2142
5675,1966
5676,1667
5677,1808
5678,2145
5679,2036
5680,1700
5681,1758
5682,2113
5683,2098
5684,1746
5685,1712
5686,2064
5687,2129
5688,1794
5689,1681
5690,1997
5691,2162
5692,1872
5693,1679
5694,1945
5695,2175
5696,1925
5697,1673
5698,1886
5699,2185
5700,1995
5701,1682
5702,1835
5703,2150
5704,2046
5705,1723
5706,1783
5707,2139
5708,2119
5709,1774
5710,1728
5711,2063
5712,2141
5713,1809
5714,1683
5715,2005
5716,2177
5717,1878
5718,1684
5719,1955
5720,2193
5721,1922
5722,1662
5723,1894
5724,2186
5725,2012
5726,1744
5727,1927
5728,2277
5729,2170
5730,1810
5731,1853
5732,2205
5733,2195
5734,1855
5735,1846
5736,2192
5737,2229
5738,1840
5739,1702
5740,1998
5741,2163
5742,1856
5743,1676
5744,1936
5745,2167
5746,1917
5747,1648
5748,1850
5749,2128
5750,1936
5751,1642
5752,1786
5753,2108
5754,1991
5755,1656
5756,1721
5757,2074
5758,2058
5759,1677
5760,1600
5761,1914
5762,2037
5763,1852
5764,1971
5765,2606
5766,3064
5767,2845
5768,2559
5769,2695
5770,2839
5771,2415
5772,1893
5773,1855
5774,1984
5775,1792
5776,1557
5777,1786
5778,2183
5779,2083
5780,1714
5781,1757
5782,2098
5783,2069
5784,1721
5785,1694
5786,2042
5787,2123
5788,1787
5789,1679
5790,1991
5791,2151
5792,1841
5793,1664
5794,1949
5795,2182
5796,1922
5797,1664
5798,1888
5799,2193
5800,1994
5801,1682
5802,1829
5803,2160
5804,2065
5805,1727
5806,1791
5807,2153
5808,2132
5809,1795
5810,1774
5811,2121
5812,2187
5813,1851
5814,1761
5815,2096
5816,2261
5817,1968
5818,1807
5819,2075
5820,2257
5821,2015
5822,1819
5823,2064
5824,2317
5825,2116
5826,1861
5827,2027
5828,2318
5829,2199
5830,1894
5831,1975
5832,2323
5833,2295
5834,1936
5835,1903
5836,2231
5837,2288
5838,1936
5839,1799
5840,2101
5841,2210
5842,1879
5843,1680
5844,1935
5845,2128
5846,1835
5847,1535
5848,1745
5849,2027
5850,1835
5851,1520
5852,1659
5853,1973
5854,1855
5855,1488
5856,1590
5857,1920
5858,1872
5859,1561
5860,1571
5861,1886
5862,1905
5863,1600
5864,1525
5865,1845
5866,1951
5867,1663
5868,1524
5869,1797
5870,1972
5871,1711
5872,1499
5873,1742
5874,1999
5875,1800
5876,1535
5877,1707
5878,1979
5879,1855
5880,1535
5881,1628
5882,1947
5883,1891
5884,1569
5885,1585
5886,1914
5887,1940
5888,1617
5889,1559
5890,1845
5891,1968
5892,1665
5893,1527
5894,1797
5895,1974
5896,1712
5897,1496
5898,1721
5899,1979
5900,1778
5901,1500
5902,1661
5903,1939
5904,1808
5905,1505
5906,1599
5907,1922
5908,1856
5909,1520
5910,1527
5911,1853
5912,1873
5913,1557
5914,1475
5915,1793
5916,1886
5917,1584
5918,1434
5919,1715
5920,1899
5921,1636
5922,1426
5923,1667
5924,1904
5925,1700
5926,1432
5927,1610
5928,1892
5929,1767
5930,1455
5931,1535
5932,1851
5933,1789
5934,1470
5935,1488
5936,1821
5937,1823
5938,1494
5939,1427
5940,1737
5941,1842
5942,1555
5943,1417
5944,1687
5945,1854
5946,1588
5947,1386
5948,1630
5949,1858
5950,1647
5951,1385
5952,1535
5953,1820
5954,1686
5955,1399
5956,1497
5957,1803
5958,1730
5959,1402
5960,1411
5961,1744
5962,1776
5963,1461
5964,1388
5965,1687
5966,1786
5967,1493
5968,1374
5969,1637
5970,1813
5971,1535
5972,1339
5973,1567
5974,1806
5975,1600
5976,1333
5977,1499
5978,1791
5979,1659
5980,1354
5981,1453
5982,1744
5983,1694
5984,1385
5985,1392
5986,1719
5987,1744
5988,1447
5989,1396
5990,1728
5991,1833
5992,1593
5993,1407
5994,1680
5995,1853
5996,1610
5997,1427
5998,1648
5999,1838
6000,1586
6001,1296
6002,1450
6003,1728
6004,1600
6005,1299
6006,1378
6007,1668
6008,1607
6009,1295
6010,1309
6011,1615
6012,1638
6013,1321
6014,1264
6015,1557
6016,1657
6017,1369
6018,1237
6019,1505
6020,1679
6021,1395
6022,1168
6023,1353
6024,1613
6025,1518
6026,1488
6027,1953
6028,2493
6029,2498
6030,2192
6031,2136
6032,2320
6033,2125
6034,1631
6035,1412
6036,1525
6037,1457
6038,1178
6039,1194
6040,1569
6041,1699
6042,1417
6043,1278
6044,1534
6045,1695
6046,1433
6047,1236
6048,1471
6049,1697
6050,1497
6051,1254
6052,1418
6053,1693
6054,1569
6055,1282
6056,1375
6057,1677
6058,1617
6059,1324
6060,1347
6061,1664
6062,1681
6063,1381
6064,1329
6065,1621
6066,1725
6067,1450
6068,1328
6069,1591
6070,1766
6071,1514
6072,1328
6073,1570
6074,1804
6075,1598
6076,1351
6077,1523
6078,1807
6079,1675
6080,1399
6081,1502
6082,1797
6083,1748
6084,1474
6085,1520
6086,1850
6087,1862
6088,1554
6089,1509
6090,1823
6091,1925
6092,1712
6093,1517
6094,1793
6095,1963
6096,1713
6097,1535
6098,1760
6099,1964
6100,1739
6101,1481
6102,1621
6103,1855
6104,1693
6105,1343
6106,1466
6107,1742
6108,1652
6109,1341
6110,1344
6111,1641
6112,1650
6113,1345
6114,1282
6115,1583
6116,1678
6117,1389
6118,1247
6119,1520
6120,1703
6121,1439
6122,1242
6123,1472
6124,1706
6125,1509
6126,1277
6127,1438
6128,1718
6129,1589
6130,1308
6131,1413
6132,1730
6133,1671
6134,1373
6135,1393
6136,1706
6137,1724
6138,1435
6139,1378
6140,1681
6141,1792
6142,1505
6143,1389
6144,1665
6145,1834
6146,1589
6147,1387
6148,1611
6149,1865
6150,1657
6151,1392
6152,1566
6153,1858
6154,1735
6155,1455
6156,1535
6157,1827
6158,1774
6159,1479
6160,1509
6161,1825
6162,1840
6163,1529
6164,1481
6165,1792
6166,1889
6167,1603
6168,1458
6169,1743
6170,1931
6171,1675
6172,1473
6173,1711
6174,1957
6175,1741
6176,1479
6177,1665
6178,1956
6179,1823
6180,1535
6181,1645
6182,1942
6183,1874
6184,1578
6185,1613
6186,1925
6187,1939
6188,1643
6189,1590
6190,1876
6191,1988
6192,1712
6193,1595
6194,1861
6195,2021
6196,1767
6197,1583
6198,1808
6199,2043
6200,1844
6201,1616
6202,1795
6203,2077
6204,1928
6205,1634
6206,1731
6207,2039
6208,1991
6209,1701
6210,1736
6211,2043
6212,2065
6213,1749
6214,1699
6215,2010
6216,2109
6217,1809
6218,1687
6219,1972
6220,2146
6221,1882
6222,1697
6223,1932
6224,2167
6225,1955
6226,1705
6227,1885
6228,2167
6229,2025
6230,1749
6231,1855
6232,2150
6233,2095
6234,1794
6235,1822
6236,2142
6237,2159
6238,1840
6239,1786
6240,2076
6241,2182
6242,1885
6243,1765
6244,2060
6245,2235
6246,1977
6247,1789
6248,2032
6249,2289
6250,2121
6251,1905
6252,2081
6253,2365
6254,2215
6255,1924
6256,2021
6257,2350
6258,2313
6259,1995
6260,1979
6261,2243
6262,2223
6263,1904
6264,1861
6265,2181
6266,2267
6267,1965
6268,1835
6269,2118
6270,2288
6271,2007
6272,1811
6273,2055
6274,2286
6275,2064
6276,1801
6277,1965
6278,2251
6279,2115
6280,1847
6281,1947
6282,2224
6283,2133
6284,1805
6285,1869
6286,2333
6287,2612
6288,2613
6289,2803
6290,3342
6291,3382
6292,2800
6293,2546
6294,2646
6295,2544
6296,2039
6297,1707
6298,1919
6299,2227
6300,2115
6301,1914
6302,2104
6303,2378
6304,2223
6305,1924
6306,2026
6307,2327
6308,2263
6309,1955
6310,1974
6311,2288
6312,2301
6313,1999
6314,1955
6315,2263
6316,2347
6317,2064
6318,1936
6319,2224
6320,2383
6321,2139
6322,1947
6323,2179
6324,2402
6325,2202
6326,1968
6327,2135
6328,2393
6329,2274
6330,1991
6331,2102
6332,2399
6333,2357
6334,2064
6335,2092
6336,2407
6337,2411
6338,2113
6339,2069
6340,2385
6341,2481
6342,2222
6343,2108
6344,2368
6345,2527
6346,2285
6347,2108
6348,2336
6349,2559
6350,2375
6351,2151
6352,2321
6353,2608
6354,2455
6355,2182
6356,2281
6357,2589
6358,2499
6359,2180
6360,2187
6361,2499
6362,2480
6363,2122
6364,2022
6365,2316
6366,2402
6367,2055
6368,1853
6369,2117
6370,2309
6371,2032
6372,1794
6373,2005
6374,2269
6375,2064
6376,1771
6377,1925
6378,2227
6379,2103
6380,1787
6381,1870
6382,2194
6383,2140
6384,1806
6385,1799
6386,2146
6387,2192
6388,1860
6389,1782
6390,2103
6391,2227
6392,1916
6393,1760
6394,2047
6395,2250
6396,1987
6397,1758
6398,1999
6399,2271
6400,2069
6401,1777
6402,1936
6403,2236
6404,2099
6405,1791
6406,1877
6407,2207
6408,2164
6409,1830
6410,1843
6411,2217
6412,2240
6413,1893
6414,1811
6415,2142
6416,2259
6417,1941
6418,1767
6419,2061
6420,2251
6421,1999
6422,1776
6423,1987
6424,2256
6425,2053
6426,1774
6427,1937
6428,2224
6429,2096
6430,1781
6431,1865
6432,2192
6433,2155
6434,1836
6435,1840
6436,2163
6437,2192
6438,1854
6439,1787
6440,2128
6441,2240
6442,1920
6443,1748
6444,2039
6445,2246
6446,1974
6447,1751
6448,1973
6449,2224
6450,2005
6451,1729
6452,1915
6453,2230
6454,2098
6455,1767
6456,1855
6457,2182
6458,2128
6459,1802
6460,1805
6461,2185
6462,2173
6463,1827
6464,1755
6465,2093
6466,2195
6467,1865
6468,1703
6469,1990
6470,2202
6471,1927
6472,1712
6473,1946
6474,2203
6475,1975
6476,1693
6477,1867
6478,2182
6479,2039
6480,1715
6481,1797
6482,2143
6483,2091
6484,1744
6485,1750
6486,2093
6487,2112
6488,1759
6489,1689
6490,2021
6491,2139
6492,1811
6493,1650
6494,1946
6495,2158
6496,1890
6497,1663
6498,1887
6499,2139
6500,1915
6501,1639
6502,1805
6503,2114
6504,1968
6505,1640
6506,1729
6507,2074
6508,1995
6509,1643
6510,1642
6511,1987
6512,2021
6513,1699
6514,1633
6515,1977
6516,2128
6517,1823
6518,1677
6519,1968
6520,2151
6521,1866
6522,1627
6523,1877
6524,2160
6525,1947
6526,1645
6527,1770
6528,2027
6529,1856
6530,1519
6531,1630
6532,1974
6533,1881
6534,1511
6535,1508
6536,1872
6537,1874
6538,1517
6539,1440
6540,1777
6541,1883
6542,1556
6543,1389
6544,1681
6545,1877
6546,1590
6547,1360
6548,1587
6549,1830
6550,1574
6551,1253
6552,1460
6553,1927
6554,2038
6555,2015
6556,2342
6557,2785
6558,2645
6559,2130
6560,2023
6561,2193
6562,1947
6563,1339
6564,1123
6565,1462
6566,1650
6567,1402
6568,1286
6569,1616
6570,1798
6571,1495
6572,1236
6573,1488
6574,1745
6575,1510
6576,1218
6577,1341
6578,1706
6579,1535
6580,1222
6581,1311
6582,1659
6583,1603
6584,1249
6585,1265
6586,1635
6587,1664
6588,1292
6589,1196
6590,1531
6591,1661
6592,1337
6593,1173
6594,1485
6595,1699
6596,1409
6597,1178
6598,1424
6599,1698
6600,1467
6601,1174
6602,1351
6603,1678
6604,1535
6605,1232
6606,1333
6607,1671
6608,1619
6609,1265
6610,1281
6611,1650
6612,1686
6613,1324
6614,1243
6615,1595
6616,1727
6617,1403
6618,1235
6619,1559
6620,1759
6621,1456
6622,1220
6623,1483
6624,1751
6625,1517
6626,1215
6627,1369
6628,1655
6629,1479
6630,1122
6631,1181
6632,1495
6633,1295
6634,997
6635,976
6636,1325
6637,1342
6638,959
6639,864
6640,1186
6641,1318
6642,978
6643,802
6644,1110
6645,1327
6646,1039
6647,791
6648,1023
6649,1307
6650,1095
6651,785
6652,973
6653,1311
6654,1173
6655,833
6656,927
6657,1290
6658,1243
6659,886
6660,891
6661,1280
6662,1329
6663,978
6664,899
6665,1269
6666,1407
6667,1067
6668,893
6669,1205
6670,1427
6671,1144
6672,897
6673,1179
6674,1488
6675,1274
6676,953
6677,1126
6678,1457
6679,1328
6680,976
6681,1079
6682,1452
6683,1435
6684,1035
6685,1042
6686,1423
6687,1458
6688,1104
6689,1017
6690,1381
6691,1521
6692,1198
6693,1023
6694,1315
6695,1531
6696,1251
6697,1013
6698,1274
6699,1564
6700,1330
6701,1051
6702,1219
6703,1570
6704,1427
6705,1088
6706,1181
6707,1535
6708,1495
6709,1137
6710,1145
6711,1526
6712,1577
6713,1223
6714,1135
6715,1487
6716,1614
6717,1275
6718,1123
6719,1452
6720,1673
6721,1376
6722,1132
6723,1392
6724,1689
6725,1463
6726,1163
6727,1334
6728,1681
6729,1559
6730,1215
6731,1328
6732,1699
6733,1661
6734,1298
6735,1311
6736,1694
6737,1737
6738,1360
6739,1293
6740,1654
6741,1790
6742,1456
6743,1294
6744,1623
6745,1854
6746,1567
6747,1326
6748,1584
6749,1873
6750,1635
6751,1329
6752,1520
6753,1872
6754,1734
6755,1392
6756,1503
6757,1886
6758,1833
6759,1465
6760,1473
6761,1852
6762,1895
6763,1535
6764,1459
6765,1823
6766,1955
6767,1639
6768,1487
6769,1802
6770,2002
6771,1709
6772,1471
6773,1750
6774,2030
6775,1808
6776,1521
6777,1712
6778,2037
6779,1899
6780,1566
6781,1664
6782,2032
6783,2016
6784,1693
6785,1721
6786,2103
6787,2139
6788,1765
6789,1691
6790,2064
6791,2194
6792,1873
6793,1732
6794,2039
6795,2224
6796,1872
6797,1616
6798,1870
6799,2177
6800,1957
6801,1648
6802,1803
6803,2133
6804,1995
6805,1657
6806,1757
6807,2129
6808,2065
6809,1693
6810,1705
6811,2078
6812,2119
6813,1764
6814,1699
6815,2047
6816,2182
6817,1803
6818,1625
6819,1927
6820,2195
6821,2035
6822,2057
6823,2624
6824,3254
6825,3105
6826,2667
6827,2689
6828,2953
6829,2608
6830,1968
6831,1817
6832,2073
6833,2026
6834,1730
6835,1824
6836,2239
6837,2287
6838,1920
6839,1833
6840,2163
6841,2277
6842,1931
6843,1777
6844,2115
6845,2331
6846,2041
6847,1799
6848,2058
6849,2343
6850,2149
6851,1806
6852,1998
6853,2351
6854,2201
6855,1846
6856,1951
6857,2335
6858,2281
6859,1911
6860,1918
6861,2294
6862,2343
6863,1990
6864,1909
6865,2277
6866,2413
6867,2075
6868,1922
6869,2231
6870,2417
6871,2146
6872,1955
6873,2223
6874,2465
6875,2228
6876,1969
6877,2172
6878,2477
6879,2325
6880,2032
6881,2172
6882,2505
6883,2443
6884,2117
6885,2146
6886,2483
6887,2485
6888,2159
6889,2096
6890,2423
6891,2539
6892,2218
6893,2097
6894,2395
6895,2544
6896,2228
6897,2002
6898,2250
6899,2478
6900,2204
6901,1901
6902,2067
6903,2348
6904,2165
6905,1823
6906,1938
6907,2289
6908,2245
6909,1833
6910,1856
6911,2192
6912,2195
6913,1858
6914,1808
6915,2147
6916,2234
6917,1904
6918,1786
6919,2089
6920,2273
6921,1982
6922,1783
6923,2039
6924,2288
6925,2057
6926,1797
6927,1997
6928,2301
6929,2142
6930,1840
6931,1965
6932,2287
6933,2215
6934,1879
6935,1932
6936,2289
6937,2290
6938,1941
6939,1906
6940,2256
6941,2349
6942,2003
6943,1882
6944,2192
6945,2352
6946,2046
6947,1856
6948,2139
6949,2379
6950,2135
6951,1874
6952,2074
6953,2362
6954,2209
6955,1904
6956,2030
6957,2353
6958,2256
6959,1909
6960,1963
6961,2307
6962,2307
6963,1953
6964,1911
6965,2262
6966,2351
6967,2009
6968,1885
6969,2208
6970,2384
6971,2084
6972,1885
6973,2150
6974,2393
6975,2145
6976,1875
6977,2077
6978,2368
6979,2205
6980,1905
6981,2031
6982,2353
6983,2276
6984,1939
6985,1982
6986,2321
6987,2320
6988,1971
6989,1929
6990,2279
6991,2359
6992,2030
6993,1919
6994,2245
6995,2411
6996,2100
6997,1885
6998,2155
6999,2406
7000,2154
7001,1878
7002,2101
7003,2402
7004,2226
7005,1904
7006,2034
7007,2371
7008,2289
7009,1955
7010,1987
7011,2334
7012,2336
7013,1991
7014,1943
7015,2288
7016,2384
7017,2064
7018,1931
7019,2238
7020,2399
7021,2109
7022,1906
7023,2178
7024,2416
7025,2173
7026,1903
7027,2107
7028,2386
7029,2223
7030,1922
7031,2064
7032,2390
7033,2288
7034,1934
7035,1986
7036,2345
7037,2339
7038,1987
7039,1936
7040,2279
7041,2368
7042,2042
7043,1922
7044,2251
7045,2416
7046,2131
7047,1947
7048,2229
7049,2485
7050,2244
7051,1962
7052,2149
7053,2445
7054,2291
7055,2000
7056,2162
7057,2486
7058,2359
7059,1977
7060,1981
7061,2315
7062,2310
7063,1968
7064,1903
7065,2235
7066,2326
7067,2009
7068,1880
7069,2177
7070,2320
7071,2014
7072,1811
7073,2090
7074,2335
7075,2098
7076,1830
7077,2034
7078,2325
7079,2150
7080,1820
7081,1919
7082,2218
7083,2128
7084,1897
7085,2150
7086,2800
7087,3129
7088,2880
7089,2820
7090,3031
7091,2991
7092,2499
7093,2185
7094,2260
7095,2236
7096,1854
7097,1693
7098,2027
7099,2309
7100,2077
7101,1826
7102,2025
7103,2309
7104,2137
7105,1833
7106,1942
7107,2256
7108,2165
7109,1840
7110,1891
7111,2235
7112,2222
7113,1872
7114,1825
7115,2181
7116,2270
7117,1937
7118,1823
7119,2154
7120,2318
7121,2000
7122,1802
7123,2078
7124,2320
7125,2091
7126,1829
7127,2037
7128,2319
7129,2142
7130,1838
7131,1978
7132,2313
7133,2221
7134,1882
7135,1939
7136,2287
7137,2293
7138,1982
7139,1958
7140,2288
7141,2361
7142,2028
7143,1905
7144,2219
7145,2394
7146,2114
7147,1931
7148,2207
7149,2445
7150,2194
7151,1927
7152,2138
7153,2435
7154,2274
7155,1971
7156,2103
7157,2407
7158,2303
7159,1952
7160,1970
7161,2288
7162,2256
7163,1877
7164,1805
7165,2103
7166,2169
7167,1808
7168,1667
7169,1957
7170,2127
7171,1808
7172,1597
7173,1847
7174,2091
7175,1834
7176,1564
7177,1758
7178,2046
7179,1859
7180,1584
7181,1690
7182,2022
7183,1933
7184,1603
7185,1643
7186,1979
7187,1977
7188,1639
7189,1616
7190,1972
7191,2046
7192,1711
7193,1590
7194,1902
7195,2069
7196,1760
7197,1567
7198,1826
7199,2077
7200,1839
7201,1582
7202,1779
7203,2078
7204,1897
7205,1595
7206,1731
7207,2057
7208,1956
7209,1611
7210,1646
7211,1983
7212,1975
7213,1646
7214,1610
7215,1930
7216,2007
7217,1691
7218,1570
7219,1895
7220,2064
7221,1750
7222,1535
7223,1818
7224,2047
7225,1805
7226,1535
7227,1747
7228,2033
7229,1866
7230,1555
7231,1680
7232,2000
7233,1903
7234,1583
7235,1638
7236,1972
7237,1959
7238,1623
7239,1600
7240,1953
7241,2013
7242,1664
7243,1533
7244,1840
7245,2018
7246,1734
7247,1533
7248,1791
7249,2016
7250,1776
7251,1523
7252,1735
7253,2018
7254,1837
7255,1520
7256,1664
7257,1998
7258,1917
7259,1569
7260,1616
7261,1950
7262,1947
7263,1604
7264,1559
7265,1917
7266,2003
7267,1665
7268,1535
7269,1852
7270,2022
7271,1725
7272,1521
7273,1795
7274,2032
7275,1788
7276,1522
7277,1734
7278,2025
7279,1855
7280,1535
7281,1664
7282,1997
7283,1907
7284,1573
7285,1623
7286,1961
7287,1964
7288,1613
7289,1575
7290,1911
7291,1997
7292,1674
7293,1559
7294,1866
7295,2032
7296,1751
7297,1535
7298,1791
7299,2014
7300,1787
7301,1535
7302,1750
7303,2031
7304,1856
7305,1554
7306,1680
7307,2000
7308,1926
7309,1600
7310,1649
7311,2000
7312,2027
7313,1723
7314,1699
7315,2031
7316,2110
7317,1789
7318,1669
7319,1971
7320,2142
7321,1879
7322,1687
7323,1895
7324,2080
7325,1806
7326,1535
7327,1766
7328,2075
7329,1877
7330,1535
7331,1666
7332,1983
7333,1892
7334,1578
7335,1615
7336,1955
7337,1942
7338,1600
7339,1555
7340,1891
7341,1973
7342,1648
7343,1525
7344,1830
7345,1973
7346,1662
7347,1456
7348,1755
7349,2119
7350,2105
7351,2134
7352,2549
7353,3056
7354,2814
7355,2338
7356,2366
7357,2523
7358,2192
7359,1601
7360,1482
7361,1810
7362,1878
7363,1621
7364,1625
7365,1985
7366,2070
7367,1728
7368,1591
7369,1872
7370,2021
7371,1739
7372,1535
7373,1807
7374,2034
7375,1811
7376,1557
7377,1750
7378,2037
7379,1872
7380,1584
7381,1719
7382,2063
7383,1969
7384,1638
7385,1679
7386,2014
7387,2007
7388,1681
7389,1645
7390,1972
7391,2071
7392,1759
7393,1649
7394,1940
7395,2110
7396,1823
7397,1647
7398,1914
7399,2160
7400,1932
7401,1680
7402,1875
7403,2169
7404,2013
7405,1726
7406,1856
7407,2180
7408,2106
7409,1791
7410,1854
7411,2203
7412,2197
7413,1861
7414,1831
7415,2171
7416,2259
7417,1939
7418,1818
7419,2124
7420,2288
7421,2005
7422,1808
7423,2058
7424,2256
7425,1981
7426,1699
7427,1869
7428,2134
7429,1947
7430,1612
7431,1696
7432,1984
7433,1875
7434,1523
7435,1553
7436,1872
7437,1861
7438,1523
7439,1488
7440,1829
7441,1910
7442,1600
7443,1469
7444,1762
7445,1921
7446,1648
7447,1446
7448,1691
7449,1918
7450,1684
7451,1429
7452,1648
7453,1946
7454,1785
7455,1475
7456,1600
7457,1920
7458,1840
7459,1509
7460,1569
7461,1910
7462,1915
7463,1584
7464,1535
7465,1890
7466,1979
7467,1654
7468,1555
7469,1823
7470,1992
7471,1706
7472,1498
7473,1758
7474,2005
7475,1785
7476,1507
7477,1713
7478,2015
7479,1851
7480,1530
7481,1654
7482,1971
7483,1883
7484,1562
7485,1615
7486,1950
7487,1941
7488,1607
7489,1566
7490,1918
7491,2012
7492,1683
7493,1535
7494,1840
7495,1994
7496,1697
7497,1501
7498,1761
7499,2000
7500,1769
7501,1509
7502,1709
7503,2000
7504,1841
7505,1535
7506,1672
7507,1994
7508,1910
7509,1582
7510,1611
7511,1939
7512,1937
7513,1615
7514,1577
7515,1915
7516,2002
7517,1679
7518,1535
7519,1846
7520,2031
7521,1744
7522,1535
7523,1808
7524,2059
7525,1815
7526,1535
7527,1745
7528,2044
7529,1893
7530,1576
7531,1695
7532,2013
7533,1930
7534,1599
7535,1648
7536,1986
7537,1982
7538,1632
7539,1585
7540,1925
7541,2027
7542,1706
7543,1573
7544,1866
7545,2047
7546,1762
7547,1554
7548,1808
7549,2047
7550,1821
7551,1563
7552,1757
7553,2058
7554,1888
7555,1570
7556,1685
7557,2007
7558,1926
7559,1585
7560,1616
7561,1946
7562,1958
7563,1621
7564,1573
7565,1904
7566,1994
7567,1664
7568,1535
7569,1851
7570,2023
7571,1727
7572,1506
7573,1763
7574,2009
7575,1785
7576,1525
7577,1714
7578,1999
7579,1872
7580,1590
7581,1722
7582,2037
7583,1968
7584,1639
7585,1667
7586,2011
7587,2015
7588,1687
7589,1645
7590,1951
7591,2002
7592,1634
7593,1456
7594,1759
7595,1925
7596,1633
7597,1424
7598,1674
7599,1895
7600,1664
7601,1389
7602,1567
7603,1856
7604,1691
7605,1382
7606,1475
7607,1795
7608,1722
7609,1381
7610,1398
7611,1747
7612,1747
7613,1392
7614,1310
7615,1610
7616,1735
7617,1523
7618,1616
7619,2198
7620,2640
7621,2491
7622,2225
7623,2307
7624,2438
7625,2064
7626,1535
7627,1466
7628,1609
7629,1418
7630,1154
7631,1331
7632,1700
7633,1647
7634,1296
7635,1292
7636,1618
7637,1616
7638,1264
7639,1191
7640,1504
7641,1609
7642,1296
7643,1152
7644,1456
7645,1631
7646,1347
7647,1133
7648,1363
7649,1606
7650,1365
7651,1086
7652,1270
7653,1570
7654,1405
7655,1085
7656,1186
7657,1511
7658,1449
7659,1115
7660,1131
7661,1456
7662,1479
7663,1152
7664,1078
7665,1385
7666,1502
7667,1194
7668,1046
7669,1331
7670,1514
7671,1241
7672,1034
7673,1268
7674,1515
7675,1293
7676,1039
7677,1215
7678,1497
7679,1355
7680,1043
7681,1139
7682,1472
7683,1409
7684,1082
7685,1088
7686,1412
7687,1433
7688,1090
7689,1002
7690,1310
7691,1383
7692,1046
7693,865
7694,1113
7695,1264
7696,944
7697,693
7698,879
7699,1097
7700,851
7701,555
7702,715
7703,1011
7704,852
7705,528
7706,591
7707,899
7708,850
7709,527
7710,511
7711,848
7712,887
7713,558
7714,464
7715,778
7716,901
7717,607
7718,462
7719,734
7720,932
7721,679
7722,453
7723,687
7724,949
7725,741
7726,459
7727,623
7728,934
7729,807
7730,496
7731,581
7732,912
7733,869
7734,535
7735,544
7736,899
7737,961
7738,637
7739,554
7740,858
7741,976
7742,659
7743,499
7744,771
7745,983
7746,733
7747,528
7748,752
7749,1023
7750,817
7751,537
7752,697
7753,1021
7754,896
7755,583
7756,656
7757,999
7758,965
7759,638
7760,648
7761,995
7762,1057
7763,731
7764,656
7765,995
7766,1143
7767,803
7768,641
7769,931
7770,1163
7771,898
7772,669
7773,900
7774,1195
7775,979
7776,705
7777,851
7778,1184
7779,1068
7780,752
7781,848
7782,1218
7783,1179
7784,830
7785,828
7786,1181
7787,1249
7788,921
7789,849
7790,1173
7791,1322
7792,1019
7793,857
7794,1150
7795,1365
7796,1093
7797,868
7798,1118
7799,1405
7800,1201
7801,915
7802,1088
7803,1424
7804,1313
7805,1003
7806,1093
7807,1455
7808,1436
7809,1095
7810,1085
7811,1430
7812,1499
7813,1174
7814,1187
7815,1451
7816,1620
7817,1309
7818,1154
7819,1429
7820,1639
7821,1371
7822,1153
7823,1403
7824,1694
7825,1488
7826,1216
7827,1392
7828,1739
7829,1629
7830,1306
7831,1387
7832,1755
7833,1718
7834,1361
7835,1366
7836,1725
7837,1807
7838,1486
7839,1410
7840,1743
7841,1876
7842,1601
7843,1471
7844,1787
7845,2022
7846,1755
7847,1517
7848,1742
7849,2039
7850,1876
7851,1616
7852,1792
7853,2100
7854,1949
7855,1582
7856,1631
7857,1985
7858,1981
7859,1651
7860,1645
7861,1983
7862,2043
7863,1717
7864,1607
7865,1926
7866,2083
7867,1786
7868,1623
7869,1910
7870,2149
7871,1903
7872,1667
7873,1903
7874,2195
7875,1997
7876,1699
7877,1823
7878,2126
7879,2045
7880,1872
7881,2172
7882,2819
7883,3117
7884,2883
7885,2811
7886,3025
7887,2993
7888,2476
7889,2133
7890,2194
7891,2194
7892,1859
7893,1741
7894,2114
7895,2417
7896,2181
7897,1929
7898,2142
7899,2419
7900,2224
7901,1936
7902,2098
7903,2421
7904,2320
7905,1968
7906,2039
7907,2413
7908,2407
7909,2067
7910,2042
7911,2384
7912,2480
7913,2159
7914,2062
7915,2368
7916,2529
7917,2224
7918,2045
7919,2337
7920,2589
7921,2345
7922,2097
7923,2311
7924,2608
7925,2415
7926,2131
7927,2284
7928,2635
7929,2532
7930,2218
7931,2285
7932,2649
7933,2653
7934,2310
7935,2290
7936,2646
7937,2721
7938,2371
7939,2285
7940,2640
7941,2831
7942,2511
7943,2310
7944,2599
7945,2859
7946,2599
7947,2346
7948,2559
7949,2918
7950,2736
7951,2418
7952,2551
7953,2895
7954,2783
7955,2405
7956,2417
7957,2739
7958,2686
7959,2299
7960,2247
7961,2581
7962,2644
7963,2257
7964,2121
7965,2433
7966,2597
7967,2266
7968,2062
7969,2346
7970,2591
7971,2311
7972,2044
7973,2270
7974,2559
7975,2368
7976,2063
7977,2207
7978,2559
7979,2454
7980,2111
7981,2174
7982,2515
7983,2506
7984,2157
7985,2133
7986,2497
7987,2559
7988,2223
7989,2102
7990,2435
7991,2626
7992,2320
7993,2130
7994,2419
7995,2672
7996,2393
7997,2127
7998,2341
7999,2650
8000,2462
8001,2159
8002,2305
8003,2660
8004,2549
8005,2186
8006,2240
8007,2611
8008,2598
8009,2231
8010,2206
8011,2559
8012,2654
8013,2302
8014,2178
8015,2495
8016,2663
8017,2337
8018,2137
8019,2419
8020,2677
8021,2409
8022,2146
8023,2367
8024,2680
8025,2493
8026,2185
8027,2324
8028,2675
8029,2555
8030,2198
8031,2273
8032,2652
8033,2655
8034,2284
8035,2235
8036,2594
8037,2673
8038,2305
8039,2175
8040,2509
8041,2706
8042,2395
8043,2187
8044,2447
8045,2698
8046,2439
8047,2176
8048,2387
8049,2722
8050,2538
8051,2199
8052,2335
8053,2696
8054,2609
8055,2241
8056,2289
8057,2663
8058,2640
8059,2278
8060,2240
8061,2607
8062,2695
8063,2333
8064,2208
8065,2543
8066,2741
8067,2429
8068,2211
8069,2473
8070,2727
8071,2459
8072,2194
8073,2415
8074,2737
8075,2544
8076,2217
8077,2335
8078,2689
8079,2591
8080,2221
8081,2285
8082,2646
8083,2645
8084,2282
8085,2241
8086,2608
8087,2688
8088,2326
8089,2215
8090,2527
8091,2701
8092,2373
8093,2172
8094,2450
8095,2731
8096,2489
8097,2223
8098,2449
8099,2799
8100,2615
8101,2279
8102,2389
8103,2758
8104,2684
8105,2345
8106,2396
8107,2735
8108,2681
8109,2269
8110,2203
8111,2559
8112,2681
8113,2320
8114,2164
8115,2465
8116,2655
8117,2353
8118,2136
8119,2389
8120,2654
8121,2395
8122,2115
8123,2315
8124,2630
8125,2451
8126,2128
8127,2255
8128,2602
8129,2506
8130,2126
8131,2113
8132,2457
8133,2525
8134,2320
8135,2537
8136,3316
8137,3855
8138,3347
8139,3005
8140,3207
8141,3344
8142,2768
8143,2352
8144,2402
8145,2513
8146,2212
8147,1961
8148,2231
8149,2589
8150,2416
8151,2107
8152,2238
8153,2559
8154,2458
8155,2102
8156,2137
8157,2498
8158,2490
8159,2121
8160,2065
8161,2432
8162,2535
8163,2210
8164,2064
8165,2381
8166,2555
8167,2256
8168,2043
8169,2304
8170,2557
8171,2313
8172,2022
8173,2235
8174,2550
8175,2380
8176,2041
8177,2160
8178,2495
8179,2410
8180,2062
8181,2095
8182,2450
8183,2480
8184,2143
8185,2070
8186,2426
8187,2527
8188,2199
8189,2064
8190,2374
8191,2559
8192,2285
8193,2074
8194,2326
8195,2595
8196,2362
8197,2095
8198,2291
8199,2597
8200,2432
8201,2165
8202,2237
8203,2559
8204,2487
8205,2141
8206,2170
8207,2506
8208,2498
8209,2112
8210,2017
8211,2333
8212,2410
8213,2059
8214,1893
8215,2175
8216,2333
8217,1994
8218,1773
8219,2036
8220,2278
8221,2013
8222,1726
8223,1922
8224,2240
8225,2071
8226,1716
8227,1811
8228,2158
8229,2081
8230,1727
8231,1753
8232,2112
8233,2129
8234,1771
8235,1707
8236,2054
8237,2149
8238,1809
8239,1684
8240,1999
8241,2187
8242,1872
8243,1654
8244,1918
8245,2188
8246,1948
8247,1678
8248,1877
8249,2189
8250,2031
8251,1701
8252,1810
8253,2153
8254,2091
8255,1721
8256,1746
8257,2096
8258,2113
8259,1756
8260,1702
8261,2043
8262,2137
8263,1785
8264,1646
8265,1957
8266,2150
8267,1840
8268,1621
8269,1885
8270,2141
8271,1881
8272,1589
8273,1782
8274,2103
8275,1936
8276,1613
8277,1727
8278,2075
8279,1986
8280,1646
8281,1618
8282,2014
8283,2023
8284,1665
8285,1600
8286,1952
8287,2091
8288,1715
8289,1566
8290,1874
8291,2063
8292,1767
8293,1535
8294,1805
8295,2083
8296,1846
8297,1535
8298,1741
8299,2059
8300,1900
8301,1571
8302,1677
8303,2029
8304,1966
8305,1603
8306,1620
8307,1975
8308,1985
8309,1627
8310,1568
8311,1918
8312,2027
8313,1695
8314,1535
8315,1847
8316,2047
8317,1749
8318,1520
8319,1776
8320,2032
8321,1792
8322,1495
8323,1702
8324,2032
8325,1872
8326,1527
8327,1639
8328,1985
8329,1917
8330,1571
8331,1597
8332,1949
8333,1983
8334,1622
8335,1535
8336,1886
8337,1983
8338,1663
8339,1495
8340,1815
8341,2018
8342,1713
8343,1459
8344,1744
8345,2020
8346,1797
8347,1514
8348,1702
8349,2013
8350,1856
8351,1535
8352,1692
8353,2061
8354,2014
8355,1674
8356,1673
8357,2015
8358,2032
8359,1687
8360,1633
8361,1994
8362,2112
8363,1734
8364,1523
8365,1809
8366,2010
8367,1743
8368,1525
8369,1782
8370,2015
8371,1771
8372,1470
8373,1651
8374,1963
8375,1813
8376,1474
8377,1581
8378,1923
8379,1852
8380,1489
8381,1517
8382,1882
8383,1910
8384,1535
8385,1461
8386,1782
8387,1883
8388,1564
8389,1523
8390,2075
8391,2559
8392,2549
8393,2447
8394,2654
8395,2785
8396,2445
8397,1984
8398,1914
8399,1983
8400,1685
8401,1327
8402,1481
8403,1904
8404,1914
8405,1587
8406,1593
8407,1941
8408,1975
8409,1610
8410,1514
8411,1871
8412,1975
8413,1650
8414,1482
8415,1787
8416,1993
8417,1731
8418,1501
8419,1747
8420,2031
8421,1815
8422,1518
8423,1687
8424,2000
8425,1872
8426,1559
8427,1651
8428,2000
8429,1956
8430,1617
8431,1616
8432,1963
8433,1995
8434,1645
8435,1581
8436,1939
8437,2086
8438,1764
8439,1603
8440,1894
8441,2116
8442,1840
8443,1611
8444,1845
8445,2133
8446,1906
8447,1648
8448,1841
8449,2173
8450,2035
8451,1709
8452,1807
8453,2162
8454,2127
8455,1784
8456,1792
8457,2162
8458,2209
8459,1855
8460,1781
8461,2102
8462,2222
8463,1871
8464,1680
8465,1942
8466,2135
8467,1832
8468,1558
8469,1761
8470,2006
8471,1776
8472,1424
8473,1616
8474,1923
8475,1766
8476,1414
8477,1488
8478,1843
8479,1791
8480,1423
8481,1408
8482,1775
8483,1838
8484,1479
8485,1381
8486,1723
8487,1869
8488,1535
8489,1367
8490,1667
8491,1889
8492,1630
8493,1374
8494,1611
8495,1895
8496,1693
8497,1391
8498,1557
8499,1884
8500,1750
8501,1406
8502,1489
8503,1864
8504,1835
8505,1475
8506,1464
8507,1838
8508,1899
8509,1555
8510,1455
8511,1803
8512,1947
8513,1623
8514,1440
8515,1746
8516,1968
8517,1686
8518,1435
8519,1679
8520,1968
8521,1752
8522,1445
8523,1616
8524,1943
8525,1808
8526,1456
8527,1527
8528,1893
8529,1871
8530,1516
8531,1511
8532,1871
8533,1919
8534,1559
8535,1471
8536,1804
8537,1957
8538,1626
8539,1442
8540,1743
8541,1974
8542,1696
8543,1445
8544,1696
8545,1980
8546,1771
8547,1449
8548,1609
8549,1938
8550,1822
8551,1478
8552,1565
8553,1936
8554,1898
8555,1522
8556,1518
8557,1882
8558,1935
8559,1585
8560,1482
8561,1819
8562,1990
8563,1683
8564,1500
8565,1793
8566,2009
8567,1740
8568,1474
8569,1725
8570,2023
8571,1815
8572,1488
8573,1657
8574,1983
8575,1865
8576,1520
8577,1599
8578,1953
8579,1927
8580,1571
8581,1554
8582,1927
8583,1983
8584,1615
8585,1506
8586,1855
8587,2011
8588,1681
8589,1507
8590,1807
8591,2032
8592,1759
8593,1490
8594,1730
8595,2031
8596,1856
8597,1535
8598,1712
8599,2035
8600,1927
8601,1582
8602,1631
8603,1975
8604,1953
8605,1604
8606,1584
8607,1943
8608,2027
8609,1689
8610,1595
8611,1940
8612,2128
8613,1824
8614,1642
8615,1914
8616,2150
8617,1899
8618,1648
8619,1879
8620,2203
8621,2001
8622,1651
8623,1746
8624,2059
8625,1920
8626,1580
8627,1649
8628,1995
8629,1969
8630,1626
8631,1600
8632,1933
8633,1996
8634,1641
8635,1533
8636,1877
8637,2032
8638,1713
8639,1514
8640,1803
8641,2037
8642,1792
8643,1535
8644,1744
8645,2007
8646,1783
8647,1457
8648,1712
8649,2256
8650,2443
8651,2383
8652,2629
8653,3039
8654,2875
8655,2377
8656,2208
8657,2352
8658,2160
8659,1602
8660,1394
8661,1759
8662,2007
8663,1755
8664,1584
8665,1872
8666,2111
8667,1833
8668,1569
8669,1776
8670,2081
8671,1903
8672,1587
8673,1727
8674,2074
8675,1975
8676,1637
8677,1693
8678,2035
8679,2023
8680,1666
8681,1641
8682,2006
8683,2097
8684,1744
8685,1613
8686,1937
8687,2112
8688,1807
8689,1629
8690,1926
8691,2176
8692,1908
8693,1647
8694,1868
8695,2165
8696,1985
8697,1680
8698,1818
8699,2166
8700,2068
8701,1698
8702,1791
8703,2162
8704,2176
8705,1840
8706,1810
8707,2162
8708,2235
8709,1903
8710,1805
8711,2143
8712,2320
8713,2007
8714,1799
8715,2081
8716,2324
8717,2079
8718,1802
8719,2032
8720,2331
8721,2157
8722,1823
8723,1932
8724,2243
8725,2111
8726,1725
8727,1745
8728,2079
8729,2039
8730,1661
8731,1601
8732,1932
8733,1999
8734,1633
8735,1491
8736,1822
8737,2000
8738,1699
8739,1478
8740,1734
8741,1968
8742,1715
8743,1442
8744,1658
8745,1963
8746,1776
8747,1447
8748,1586
8749,1936
8750,1861
8751,1503
8752,1535
8753,1911
8754,1931
8755,1583
8756,1530
8757,1872
8758,1965
8759,1641
8760,1510
8761,1830
8762,1999
8763,1699
8764,1492
8765,1785
8766,2047
8767,1808
8768,1520
8769,1731
8770,2042
8771,1876
8772,1534
8773,1664
8774,2005
8775,1923
8776,1573
8777,1605
8778,1965
8779,1979
8780,1637
8781,1584
8782,1937
8783,2032
8784,1680
8785,1535
8786,1856
8787,2034
8788,1728
8789,1509
8790,1776
8791,2031
8792,1796
8793,1523
8794,1719
8795,2019
8796,1856
8797,1535
8798,1664
8799,2000
8800,1906
8801,1557
8802,1596
8803,1968
8804,1977
8805,1602
8806,1535
8807,1889
8808,1991
8809,1650
8810,1507
8811,1840
8812,2033
8813,1735
8814,1515
8815,1795
8816,2057
8817,1805
8818,1520
8819,1725
8820,2032
8821,1874
8822,1535
8823,1664
8824,2009
8825,1919
8826,1562
8827,1591
8828,1963
8829,1983
8830,1610
8831,1555
8832,1929
8833,2058
8834,1709
8835,1535
8836,1862
8837,2071
8838,1780
8839,1559
8840,1814
8841,2077
8842,1837
8843,1535
8844,1751
8845,2070
8846,1898
8847,1556
8848,1678
8849,2031
8850,1959
8851,1601
8852,1616
8853,1981
8854,2000
8855,1647
8856,1593
8857,1954
8858,2069
8859,1718
8860,1577
8861,1891
8862,2086
8863,1791
8864,1575
8865,1835
8866,2096
8867,1857
8868,1567
8869,1750
8870,2091
8871,1961
8872,1650
8873,1788
8874,2158
8875,2097
8876,1734
8877,1749
8878,2115
8879,2147
8880,1808
8881,1757
8882,2070
8883,2115
8884,1733
8885,1566
8886,1882
8887,2092
8888,1801
8889,1563
8890,1809
8891,2064
8892,1839
8893,1535
8894,1736
8895,2059
8896,1899
8897,1563
8898,1663
8899,2003
8900,1939
8901,1598
8902,1616
8903,1976
8904,2000
8905,1645
8906,1558
8907,1863
8908,1990
8909,1792
8910,1865
8911,2461
8912,2945
8913,2797
8914,2513
8915,2615
8916,2793
8917,2416
8918,1878
8919,1791
8920,1935
8921,1763
8922,1505
8923,1680
8924,2069
8925,2027
8926,1684
8927,1696
8928,2035
8929,2064
8930,1712
8931,1637
8932,1967
8933,2083
8934,1764
8935,1606
8936,1898
8937,2111
8938,1831
8939,1596
8940,1840
8941,2124
8942,1907
8943,1625
8944,1809
8945,2125
8946,1986
8947,1666
8948,1762
8949,2122
8950,2073
8951,1728
8952,1742
8953,2098
8954,2133
8955,1777
8956,1697
8957,2034
8958,2186
8959,1869
8960,1715
8961,2021
8962,2231
8963,1954
8964,1718
8965,1967
8966,2250
8967,2053
8968,1773
8969,1959
8970,2288
8971,2160
8972,1829
8973,1920
8974,2267
8975,2238
8976,1893
8977,1904
8978,2266
8979,2300
8980,1939
8981,1854
8982,2184
8983,2290
8984,1937
8985,1759
8986,2023
8987,2195
8988,1876
8989,1622
8990,1840
8991,2080
8992,1840
8993,1525
8994,1686
8995,1993
8996,1856
8997,1507
8998,1601
8999,1936
9000,1886
9001,1530
9002,1524
9003,1887
9004,1931
9005,1535
9006,1505
9007,1840
9008,1966
9009,1648
9010,1475
9011,1771
9012,1986
9013,1722
9014,1478
9015,1724
9016,1997
9017,1781
9018,1486
9019,1673
9020,2003
9021,1872
9022,1535
9023,1631
9024,1984
9025,1936
9026,1593
9027,1597
9028,1967
9029,2016
9030,1665
9031,1564
9032,1904
9033,2032
9034,1711
9035,1535
9036,1858
9037,2075
9038,1792
9039,1535
9040,1778
9041,2033
9042,1829
9043,1524
9044,1700
9045,2018
9046,1904
9047,1583
9048,1649
9049,1981
9050,1949
9051,1603
9052,1599
9053,1946
9054,2004
9055,1658
9056,1563
9057,1899
9058,2032
9059,1718
9060,1535
9061,1835
9062,2055
9063,1785
9064,1535
9065,1773
9066,2035
9067,1834
9068,1523
9069,1690
9070,2017
9071,1896
9072,1562
9073,1633
9074,1975
9075,1955
9076,1616
9077,1600
9078,1946
9079,2002
9080,1664
9081,1562
9082,1902
9083,2047
9084,1721
9085,1530
9086,1831
9087,2067
9088,1802
9089,1535
9090,1788
9091,2066
9092,1867
9093,1561
9094,1725
9095,2047
9096,1926
9097,1595
9098,1668
9099,2007
9100,1975
9101,1635
9102,1606
9103,1959
9104,2013
9105,1664
9106,1566
9107,1906
9108,2063
9109,1735
9110,1535
9111,1840
9112,2090
9113,1818
9114,1558
9115,1795
9116,2099
9117,1878
9118,1581
9119,1729
9120,2058
9121,1955
9122,1627
9123,1698
9124,2053
9125,2015
9126,1664
9127,1651
9128,1986
9129,2059
9130,1747
9131,1680
9132,2000
9133,2166
9134,1873
9135,1680
9136,1952
9137,2191
9138,1959
9139,1735
9140,1967
9141,2233
9142,2001
9143,1693
9144,1766
9145,2079
9146,1957
9147,1633
9148,1686
9149,2034
9150,1992
9151,1648
9152,1618
9153,1954
9154,2019
9155,1680
9156,1583
9157,1899
9158,2045
9159,1747
9160,1569
9161,1840
9162,2077
9163,1818
9164,1535
9165,1744
9166,1999
9167,1801
9168,1591
9169,1921
9170,2544
9171,2755
9172,2583
9173,2635
9174,2846
9175,2731
9176,2282
9177,2033
9178,2107
9179,1982
9180,1573
9181,1488
9182,1893
9183,2112
9184,1820
9185,1645
9186,1913
9187,2133
9188,1872
9189,1613
9190,1826
9191,2116
9192,1936
9193,1627
9194,1762
9195,2106
9196,2010
9197,1661
9198,1709
9199,2055
9200,2045
9201,1688
9202,1664
9203,2011
9204,2099
9205,1774
9206,1653
9207,1985
9208,2167
9209,1853
9210,1653
9211,1946
9212,2194
9213,1942
9214,1680
9215,1897
9216,2199
9217,2019
9218,1721
9219,1854
9220,2189
9221,2118
9222,1783
9223,1845
9224,2207
9225,2199
9226,1844
9227,1808
9228,2167
9229,2265
9230,1936
9231,1808
9232,2128
9233,2305
9234,2012
9235,1776
9236,2092
9237,2335
9238,2111
9239,1861
9240,2067
9241,2343
9242,2145
9243,1808
9244,1922
9245,2235
9246,2106
9247,1718
9248,1729
9249,2067
9250,2039
9251,1664
9252,1600
9253,1918
9254,2007
9255,1667
9256,1522
9257,1838
9258,2000
9259,1696
9260,1487
9261,1751
9262,1997
9263,1758
9264,1494
9265,1700
9266,2002
9267,1819
9268,1499
9269,1633
9270,1977
9271,1887
9272,1533
9273,1584
9274,1941
9275,1968
9276,1626
9277,1575
9278,1918
9279,1995
9280,1658
9281,1520
9282,1853
9283,2033
9284,1728
9285,1523
9286,1814
9287,2079
9288,1825
9289,1535
9290,1755
9291,2058
9292,1879
9293,1562
9294,1695
9295,2035
9296,1940
9297,1580
9298,1619
9299,1990
9300,1998
9301,1631
9302,1571
9303,1907
9304,2015
9305,1680
9306,1535
9307,1872
9308,2057
9309,1735
9310,1503
9311,1779
9312,2030
9313,1785
9314,1505
9315,1722
9316,2018
9317,1851
9318,1534
9319,1657
9320,2010
9321,1936
9322,1585
9323,1605
9324,1964
9325,1968
9326,1616
9327,1564
9328,1909
9329,2010
9330,1691
9331,1559
9332,1872
9333,2071
9334,1751
9335,1523
9336,1789
9337,2046
9338,1761
9339,1531
9340,1732
9341,2036
9342,1870
9343,1535
9344,1668
9345,2017
9346,1938
9347,1591
9348,1623
9349,1983
9350,1999
9351,1642
9352,1568
9353,1911
9354,2023
9355,1702
9356,1557
9357,1867
9358,2071
9359,1771
9360,1535
9361,1806
9362,2064
9363,1834
9364,1535
9365,1741
9366,2063
9367,1904
9368,1575
9369,1680
9370,2021
9371,1962
9372,1604
9373,1631
9374,1981
9375,2008
9376,1657
9377,1598
9378,1936
9379,2045
9380,1712
9381,1563
9382,1887
9383,2111
9384,1839
9385,1627
9386,1902
9387,2174
9388,1936
9389,1638
9390,1828
9391,2159
9392,2021
9393,1711
9394,1808
9395,2125
9396,2012
9397,1639
9398,1648
9399,2001
9400,2037
9401,1674
9402,1575
9403,1923
9404,2057
9405,1713
9406,1535
9407,1847
9408,2060
9409,1766
9410,1533
9411,1792
9412,2055
9413,1826
9414,1535
9415,1741
9416,2056
9417,1895
9418,1533
9419,1606
9420,1936
9421,1961
9422,1806
9423,2106
9424,2763
9425,2997
9426,2624
9427,2403
9428,2607
9429,2626
9430,2117
9431,1734
9432,1831
9433,1921
9434,1643
9435,1471
9436,1790
9437,2096
9438,1886
9439,1599
9440,1773
9441,2081
9442,1930
9443,1595
9444,1690
9445,2042
9446,2000
9447,1654
9448,1647
9449,2018
9450,2045
9451,1699
9452,1638
9453,1983
9454,2101
9455,1775
9456,1606
9457,1904
9458,2122
9459,1850
9460,1616
9461,1851
9462,2128
9463,1913
9464,1631
9465,1822
9466,2143
9467,1999
9468,1664
9469,1755
9470,2111
9471,2078
9472,1733
9473,1729
9474,2102
9475,2145
9476,1819
9477,1744
9478,2086
9479,2222
9480,1887
9481,1722
9482,2037
9483,2271
9484,2003
9485,1780
9486,2025
9487,2307
9488,2097
9489,1810
9490,1991
9491,2304
9492,2174
9493,1822
9494,1899
9495,2243
9496,2194
9497,1830
9498,1802
9499,2132
9500,2145
9501,1770
9502,1654
9503,1956
9504,2078
9505,1727
9506,1534
9507,1809
9508,2006
9509,1728
9510,1474
9511,1725
9512,2011
9513,1795
9514,1488
9515,1659
9516,1977
9517,1840
9518,1487
9519,1574
9520,1934
9521,1899
9522,1535
9523,1533
9524,1882
9525,1941
9526,1600
9527,1503
9528,1850
9529,1992
9530,1677
9531,1509
9532,1817
9533,2039
9534,1774
9535,1510
9536,1744
9537,2026
9538,1819
9539,1520
9540,1699
9541,2029
9542,1905
9543,1569
9544,1641
9545,1994
9546,1962
9547,1613
9548,1606
9549,1957
9550,2010
9551,1663
9552,1573
9553,1906
9554,2044
9555,1722
9556,1521
9557,1810
9558,2035
9559,1759
9560,1503
9561,1819
9562,2031
9563,1839
9564,1523
9565,1680
9566,2005
9567,1891
9568,1554
9569,1632
9570,1979
9571,1952
9572,1613
9573,1585
9574,1959
9575,2017
9576,1655
9577,1535
9578,1872
9579,2031
9580,1712
9581,1526
9582,1823
9583,2035
9584,1758
9585,1504
9586,1747
9587,2046
9588,1869
9589,1574
9590,1713
9591,2023
9592,1904
9593,1574
9594,1638
9595,1995
9596,1970
9597,1619
9598,1596
9599,1949
9600,2019
9601,1685
9602,1587
9603,1904
9604,2064
9605,1734
9606,1535
9607,1823
9608,2064
9609,1794
9610,1535
9611,1769
9612,2053
9613,1871
9614,1641
9615,1741
9616,2047
9617,1938
9618,1614
9619,1675
9620,2025
9621,1987
9622,1636
9623,1618
9624,1963
9625,2034
9626,1785
9627,1590
9628,1908
9629,2067
9630,1764
9631,1575
9632,1843
9633,2071
9634,1828
9635,1580
9636,1827
9637,2139
9638,1965
9639,1675
9640,1819
9641,2158
9642,2063
9643,1725
9644,1808
9645,2162
9646,2158
9647,1776
9648,1688
9649,1968
9650,2046
9651,1725
9652,1616
9653,1940
9654,2093
9655,1783
9656,1593
9657,1861
9658,2080
9659,1804
9660,1535
9661,1770
9662,2065
9663,1883
9664,1564
9665,1699
9666,2029
9667,1945
9668,1605
9669,1651
9670,1969
9671,1941
9672,1595
9673,1611
9674,2119
9675,2460
9676,2427
9677,2519
9678,2909
9679,3008
9680,2503
9681,2179
9682,2278
9683,2286
9684,1809
9685,1411
9686,1616
9687,1966
9688,1875
9689,1631
9690,1788
9691,2124
9692,2010
9693,1659
9694,1687
9695,2025
9696,2033
9697,1693
9698,1645
9699,1984
9700,2075
9701,1761
9702,1646
9703,1968
9704,2129
9705,1841
9706,1644
9707,1904
9708,2147
9709,1895
9710,1623
9711,1830
9712,2127
9713,1977
9714,1687
9715,1803
9716,2149
9717,2077
9718,1733
9719,1763
9720,2111
9721,2119
9722,1796
9723,1756
9724,2105
9725,2205
9726,1888
9727,1753
9728,2069
9729,2245
9730,1969
9731,1776
9732,2038
9733,2300
9734,2078
9735,1808
9736,2005
9737,2305
9738,2161
9739,1865
9740,1997
9741,2308
9742,2240
9743,1901
9744,1934
9745,2269
9746,2267
9747,1923
9748,1856
9749,2163
9750,2240
9751,1877
9752,1712
9753,1993
9754,2147
9755,1839
9756,1616
9757,1837
9758,2039
9759,1810
9760,1526
9761,1710
9762,2000
9763,1834
9764,1469
9765,1617
9766,1936
9767,1872
9768,1534
9769,1559
9770,1911
9771,1920
9772,1575
9773,1505
9774,1839
9775,1949
9776,1645
9777,1507
9778,1834
9779,2015
9780,1714
9781,1488
9782,1743
9783,2002
9784,1808
9785,1535
9786,1726
9787,2032
9788,1872
9789,1535
9790,1671
9791,2016
9792,1940
9793,1605
9794,1625
9795,1941
9796,1963
9797,1629
9798,1575
9799,1920
9800,2019
9801,1691
9802,1559
9803,1843
9804,2038
9805,1776
9806,1563
9807,1813
9808,2075
9809,1811
9810,1520
9811,1712
9812,2029
9813,1894
9814,1575
9815,1665
9816,1985
9817,1933
9818,1605
9819,1616
9820,1951
9821,1989
9822,1659
9823,1583
9824,1904
9825,2015
9826,1697
9827,1535
9828,1855
9829,2053
9830,1755
9831,1519
9832,1766
9833,2029
9834,1829
9835,1535
9836,1718
9837,2030
9838,1904
9839,1587
9840,1680
9841,1996
9842,1943
9843,1606
9844,1616
9845,1974
9846,2008
9847,1663
9848,1562
9849,1895
9850,2018
9851,1710
9852,1565
9853,1863
9854,2083
9855,1755
9856,1532
9857,1781
9858,2064
9859,1839
9860,1535
9861,1730
9862,2042
9863,1919
9864,1607
9865,1692
9866,2018
9867,1968
9868,1633
9869,1648
9870,1991
9871,2012
9872,1661
9873,1589
9874,1906
9875,2039
9876,1755
9877,1606
9878,1899
9879,2095
9880,1813
9881,1583
9882,1815
9883,2086
9884,1896
9885,1609
9886,1774
9887,2075
9888,1934
9889,1605
9890,1698
9891,2043
9892,2000
9893,1650
9894,1650
9895,1995
9896,2045
9897,1744
9898,1701
9899,2032
9900,2175
9901,1867
9902,1699
9903,1966
9904,2176
9905,1920
9906,1708
9907,1951
9908,2205
9909,1944
9910,1601
9911,1738
9912,2033
9913,1943
9914,1639
9915,1708
9916,2060
9917,1999
9918,1633
9919,1606
9920,1949
9921,2000
9922,1669
9923,1573
9924,1904
9925,2061
9926,1738
9927,1553
9928,1837
9929,2063
9930,1808
9931,1554
9932,1757
9933,1994
9934,1837
9935,1683
9936,2095
9937,2691
9938,2833
9939,2624
9940,2649
9941,2819
9942,2691
9943,2166
9944,1873
9945,1965
9946,1887
9947,1535
9948,1531
9949,1926
9950,2099
9951,1806
9952,1629
9953,1903
9954,2117
9955,1853
9956,1606
9957,1829
9958,2107
9959,1904
9960,1613
9961,1778
9962,2066
9963,1947
9964,1633
9965,1709
9966,2053
9967,2043
9968,1710
9969,1701
9970,2032
9971,2097
9972,1779
9973,1696
9974,2002
9975,2149
9976,1853
9977,1681
9978,1973
9979,2193
9980,1941
9981,1711
9982,1933
9983,2192
9984,2006
9985,1727
9986,1887
9987,2219
9988,2112
9989,1776
9990,1839
9991,2176
9992,2170
9993,1851
9994,1840
9995,2185
9996,2259
9997,1943
9998,1859
9999,2185
10000,2345
10001,2043
10002,1874
10003,2156
10004,2373
10005,2115
10006,1863
10007,2082
10008,2352
10009,2153
10010,1833
10011,1947
10012,2226
10013,2096
10014,1742
10015,1767
10016,2082
10017,2037
10018,1673
10019,1630
10020,1945
10021,2001
10022,1649
10023,1517
10024,1823
10025,1981
10026,1670
10027,1486
10028,1772
10029,2001
10030,1746
10031,1491
10032,1702
10033,1987
10034,1809
10035,1503
10036,1635
10037,1979
10038,1886
10039,1535
10040,1591
10041,1927
10042,1925
10043,1599
10044,1573
10045,1918
10046,1979
10047,1633
10048,1520
10049,1857
10050,2034
10051,1732
10052,1535
10053,1811
10054,2042
10055,1802
10056,1535
10057,1763
10058,2070
10059,1882
10060,1565
10061,1700
10062,2009
10063,1919
10064,1595
10065,1643
10066,1975
10067,1968
10068,1619
10069,1591
10070,1926
10071,2015
10072,1699
10073,1571
10074,1861
10075,2041
10076,1744
10077,1535
10078,1799
10079,2045
10080,1799
10081,1523
10082,1730
10083,2022
10084,1846
10085,1535
10086,1669
10087,2000
10088,1922
10089,1593
10090,1615
10091,1946
10092,1942
10093,1600
10094,1565
10095,1906
10096,2015
10097,1679
10098,1535
10099,1854
10100,2043
10101,1744
10102,1535
10103,1806
10104,2043
10105,1806
10106,1535
10107,1741
10108,2047
10109,1887
10110,1574
10111,1685
10112,2015
10113,1926
10114,1584
10115,1635
10116,1992
10117,1983
10118,1631
10119,1579
10120,1929
10121,2018
10122,1699
10123,1567
10124,1874
10125,2055
10126,1773
10127,1535
10128,1843
10129,2086
10130,1847
10131,1582
10132,1776
10133,2074
10134,1911
10135,1598
10136,1703
10137,2044
10138,1963
10139,1616
10140,1651
10141,2009
10142,2034
10143,1690
10144,1630
10145,1951
10146,2065
10147,1742
10148,1609
10149,1850
10150,2086
10151,1801
10152,1617
10153,1907
10154,2178
10155,1965
10156,1707
10157,1877
10158,2166
10159,2011
10160,1712
10161,1840
10162,2202
10163,2127
10164,1734
10165,1715
10166,2020
10167,2022
10168,1697
10169,1651
10170,1963
10171,2064
10172,1728
10173,1590
10174,1892
10175,2064
10176,1773
10177,1535
10178,1801
10179,2058
10180,1837
10181,1567
10182,1755
10183,2056
10184,1907
10185,1584
10186,1666
10187,1983
10188,1882
10189,1530
10190,1653
10191,2206
10192,2527
10193,2485
10194,2608
10195,2965
10196,2935
10197,2466
10198,2192
10199,2271
10200,2175
10201,1687
10202,1392
10203,1681
10204,2015
10205,1872
10206,1635
10207,1831
10208,2131
10209,1967
10210,1620
10211,1712
10212,2057
10213,2011
10214,1675
10215,1680
10216,2032
10217,2057
10218,1684
10219,1646
10220,1965
10221,2085
10222,1774
10223,1629
10224,1927
10225,2125
10226,1840
10227,1630
10228,1883
10229,2144
10230,1932
10231,1661
10232,1838
10233,2138
10234,2021
10235,1717
10236,1813
10237,2143
10238,2096
10239,1761
10240,1783
10241,2131
10242,2160
10243,1830
10244,1761
10245,2093
10246,2223
10247,1921
10248,1774
10249,2086
10250,2304
10251,2034
10252,1811
10253,2064
10254,2321
10255,2115
10256,1843
10257,2022
10258,2326
10259,2193
10260,1870
10261,1965
10262,2303
10263,2245
10264,1885
10265,1872
10266,2197
10267,2208
10268,1840
10269,1723
10270,2023
10271,2125
10272,1776
10273,1587
10274,1851
10275,2063
10276,1774
10277,1522
10278,1741
10279,2005
10280,1785
10281,1472
10282,1636
10283,1947
10284,1821
10285,1507
10286,1591
10287,1922
10288,1887
10289,1535
10290,1556
10291,1900
10292,1937
10293,1599
10294,1506
10295,1835
10296,1979
10297,1677
10298,1516
10299,1808
10300,2011
10301,1751
10302,1521
10303,1762
10304,2035
10305,1839
10306,1535
10307,1705
10308,2021
10309,1903
10310,1583
10311,1665
10312,1989
10313,1945
10314,1605
10315,1600
10316,1936
10317,1984
10318,1651
10319,1559
10320,1882
10321,2020
10322,1713
10323,1535
10324,1824
10325,2026
10326,1763
10327,1521
10328,1756
10329,2029
10330,1835
10331,1522
10332,1675
10333,1984
10334,1870
10335,1535
10336,1616
10337,1967
10338,1938
10339,1601
10340,1586
10341,1924
10342,1969
10343,1637
10344,1525
10345,1840
10346,1968
10347,1666
10348,1500
10349,1789
10350,2015
10351,1745
10352,1494
10353,1709
10354,1976
10355,1791
10356,1502
10357,1647
10358,1950
10359,1834
10360,1505
10361,1593
10362,1934
10363,1904
10364,1561
10365,1530
10366,1861
10367,1925
10368,1520
10369,1491
10370,1827
10371,1966
10372,1664
10373,1472
10374,1746
10375,1967
10376,1711
10377,1459
10378,1687
10379,1961
10380,1775
10381,1471
10382,1617
10383,1923
10384,1822
10385,1488
10386,1535
10387,1879
10388,1845
10389,1498
10390,1489
10391,1835
10392,1898
10393,1578
10394,1462
10395,1776
10396,1929
10397,1646
10398,1456
10399,1716
10400,1926
10401,1678
10402,1429
10403,1633
10404,1937
10405,1793
10406,1515
10407,1678
10408,1950
10409,1876
10410,1535
10411,1605
10412,1943
10413,1941
10414,1616
10415,1535
10416,1821
10417,1842
10418,1514
10419,1418
10420,1744
10421,1887
10422,1579
10423,1363
10424,1632
10425,1847
10426,1594
10427,1342
10428,1535
10429,1818
10430,1643
10431,1342
10432,1472
10433,1781
10434,1695
10435,1354
10436,1413
10437,1747
10438,1712
10439,1332
10440,1279
10441,1679
10442,1925
10443,1893
10444,2069
10445,2559
10446,2782
10447,2352
10448,2023
10449,2193
10450,2235
10451,1739
10452,1251
10453,1327
10454,1643
10455,1535
10456,1313
10457,1461
10458,1787
10459,1693
10460,1360
10461,1392
10462,1723
10463,1711
10464,1363
10465,1329
10466,1652
10467,1731
10468,1424
10469,1302
10470,1593
10471,1738
10472,1469
10473,1295
10474,1557
10475,1762
10476,1523
10477,1273
10478,1456
10479,1750
10480,1606
10481,1332
10482,1456
10483,1774
10484,1680
10485,1360
10486,1409
10487,1742
10488,1740
10489,1414
10490,1383
10491,1701
10492,1805
10493,1488
10494,1385
10495,1670
10496,1841
10497,1575
10498,1392
10499,1645
10500,1869
10501,1666
10502,1434
10503,1645
10504,1915
10505,1754
10506,1461
10507,1590
10508,1893
10509,1819
10510,1509
10511,1558
10512,1891
10513,1889
10514,1555
10515,1503
10516,1815
10517,1887
10518,1535
10519,1378
10520,1646
10521,1775
10522,1488
10523,1270
10524,1495
10525,1701
10526,1459
10527,1195
10528,1374
10529,1655
10530,1487
10531,1171
10532,1289
10533,1613
10534,1522
10535,1203
10536,1232
10537,1559
10538,1559
10539,1244
10540,1202
10541,1522
10542,1613
10543,1309
10544,1184
10545,1485
10546,1655
10547,1379
10548,1193
10549,1441
10550,1671
10551,1461
10552,1215
10553,1419
10554,1697
10555,1535
10556,1254
10557,1369
10558,1695
10559,1619
10560,1306
10561,1333
10562,1650
10563,1656
10564,1347
10565,1296
10566,1614
10567,1697
10568,1405
10569,1291
10570,1585
10571,1744
10572,1470
10573,1281
10574,1524
10575,1750
10576,1535
10577,1297
10578,1486
10579,1754
10580,1613
10581,1319
10582,1420
10583,1742
10584,1680
10585,1377
10586,1395
10587,1727
10588,1743
10589,1434
10590,1388
10591,1693
10592,1785
10593,1472
10594,1344
10595,1619
10596,1807
10597,1535
10598,1362
10599,1602
10600,1844
10601,1623
10602,1372
10603,1535
10604,1815
10605,1678
10606,1412
10607,1525
10608,1845
10609,1771
10610,1450
10611,1474
10612,1804
10613,1840
10614,1529
10615,1469
10616,1776
10617,1881
10618,1586
10619,1454
10620,1735
10621,1902
10622,1664
10623,1475
10624,1723
10625,1940
10626,1726
10627,1474
10628,1667
10629,1939
10630,1803
10631,1521
10632,1631
10633,1929
10634,1872
10635,1581
10636,1600
10637,1920
10638,1950
10639,1649
10640,1591
10641,1873
10642,1968
10643,1691
10644,1583
10645,1901
10646,2068
10647,1835
10648,1663
10649,1889
10650,2119
10651,1911
10652,1679
10653,1855
10654,2154
10655,2047
10656,1763
10657,1837
10658,2101
10659,1985
10660,1664
10661,1687
10662,2011
10663,2031
10664,1713
10665,1649
10666,1955
10667,2061
10668,1750
10669,1616
10670,1879
10671,2061
10672,1822
10673,1639
10674,1871
10675,2096
10676,1891
10677,1639
10678,1808
10679,2086
10680,1932
10681,1622
10682,1694
10683,2064
10684,2182
10685,2141
10686,2461
10687,3019
10688,3136
10689,2660
10690,2416
10691,2626
10692,2589
10693,2102
10694,1746
10695,1872
10696,2011
10697,1809
10698,1682
10699,1997
10700,2224
10701,2037
10702,1783
10703,1922
10704,2198
10705,2073
10706,1791
10707,1885
10708,2189
10709,2155
10710,1840
10711,1838
10712,2159
10713,2186
10714,1882
10715,1822
10716,2123
10717,2235
10718,1958
10719,1827
10720,2095
10721,2260
10722,2018
10723,1808
10724,2039
10725,2303
10726,2117
10727,1860
10728,2020
10729,2300
10730,2183
10731,1895
10732,1971
10733,2295
10734,2256
10735,1959
10736,1965
10737,2281
10738,2327
10739,2032
10740,1968
10741,2265
10742,2383
10743,2118
10744,1984
10745,2256
10746,2438
10747,2197
10748,1999
10749,2224
10750,2470
10751,2303
10752,2062
10753,2218
10754,2497
10755,2378
10756,2076
10757,2132
10758,2440
10759,2375
10760,2054
10761,2003
10762,2288
10763,2311
10764,2002
10765,1916
10766,2178
10767,2255
10768,1947
10769,1790
10770,2046
10771,2223
10772,1983
10773,1776
10774,1968
10775,2194
10776,2029
10777,1783
10778,1931
10779,2218
10780,2096
10781,1793
10782,1862
10783,2182
10784,2126
10785,1815
10786,1813
10787,2128
10788,2177
10789,1883
10790,1824
10791,2128
10792,2234
10793,1961
10794,1810
10795,2082
10796,2262
10797,2018
10798,1812
10799,2031
10800,2274
10801,2098
10802,1829
10803,1974
10804,2256
10805,2151
10806,1865
10807,1942
10808,2247
10809,2199
10810,1895
10811,1883
10812,2194
10813,2249
10814,1936
10815,1853
10816,2139
10817,2266
10818,1974
10819,1821
10820,2081
10821,2274
10822,2027
10823,1808
10824,2000
10825,2262
10826,2096
10827,1829
10828,1957
10829,2241
10830,2147
10831,1855
10832,1907
10833,2221
10834,2197
10835,1891
10836,1867
10837,2167
10838,2215
10839,1924
10840,1838
10841,2130
10842,2246
10843,1977
10844,1839
10845,2096
10846,2288
10847,2032
10848,1807
10849,2009
10850,2262
10851,2096
10852,1825
10853,1961
10854,2253
10855,2160
10856,1850
10857,1909
10858,2221
10859,2195
10860,1883
10861,1851
10862,2160
10863,2222
10864,1937
10865,1856
10866,2143
10867,2275
10868,2011
10869,1837
10870,2089
10871,2259
10872,2019
10873,1808
10874,2015
10875,2297
10876,2128
10877,1843
10878,1959
10879,2249
10880,2143
10881,1856
10882,1919
10883,2225
10884,2206
10885,1916
10886,1920
10887,2253
10888,2320
10889,2032
10890,1934
10891,2219
10892,2361
10893,2098
10894,1934
10895,2201
10896,2410
10897,2145
10898,1865
10899,2013
10900,2249
10901,2090
10902,1831
10903,1955
10904,2225
10905,2118
10906,1818
10907,1869
10908,2174
10909,2150
10910,1840
10911,1815
10912,2121
10913,2172
10914,1861
10915,1767
10916,2066
10917,2206
10918,1933
10919,1750
10920,1993
10921,2178
10922,1861
10923,1766
10924,2127
10925,2670
10926,2813
10927,2739
10928,2911
10929,3123
10930,2816
10931,2378
10932,2204
10933,2255
10934,2036
10935,1667
10936,1665
10937,2057
10938,2195
10939,1919
10940,1829
10941,2110
10942,2240
10943,1945
10944,1767
10945,2007
10946,2227
10947,2015
10948,1785
10949,1970
10950,2239
10951,2064
10952,1783
10953,1903
10954,2199
10955,2133
10956,1833
10957,1870
10958,2192
10959,2181
10960,1878
10961,1851
10962,2146
10963,2217
10964,1931
10965,1817
10966,2115
10967,2274
10968,2013
10969,1834
10970,2071
10971,2288
10972,2089
10973,1854
10974,2032
10975,2281
10976,2137
10977,1871
10978,2000
10979,2318
10980,2234
10981,1926
10982,1972
10983,2291
10984,2291
10985,2003
10986,1975
10987,2283
10988,2357
10989,2085
10990,1973
10991,2256
10992,2410
10993,2134
10994,1942
10995,2182
10996,2391
10997,2170
10998,1911
10999,2075
11000,2304
11001,2112
11002,1803
11003,1886
11004,2160
11005,2057
11006,1729
11007,1743
11008,2057
11009,2032
11010,1700
11011,1641
11012,1936
11013,2013
11014,1712
11015,1598
11016,1873
11017,2013
11018,1760
11019,1572
11020,1791
11021,2018
11022,1822
11023,1585
11024,1761
11025,2016
11026,1875
11027,1600
11028,1715
11029,2015
11030,1926
11031,1625
11032,1663
11033,1969
11034,1981
11035,1671
11036,1630
11037,1931
11038,2013
11039,1734
11040,1615
11041,1899
11042,2064
11043,1778
11044,1586
11045,1838
11046,2069
11047,1856
11048,1611
11049,1785
11050,2054
11051,1904
11052,1611
11053,1712
11054,2015
11055,1942
11056,1629
11057,1648
11058,1983
11059,1994
11060,1664
11061,1593
11062,1895
11063,1995
11064,1712
11065,1594
11066,1857
11067,2015
11068,1755
11069,1572
11070,1794
11071,2023
11072,1822
11073,1569
11074,1746
11075,2032
11076,1879
11077,1590
11078,1680
11079,1984
11080,1911
11081,1595
11082,1611
11083,1933
11084,1949
11085,1641
11086,1583
11087,1891
11088,1999
11089,1698
11090,1554
11091,1815
11092,1990
11093,1743
11094,1554
11095,1787
11096,2052
11097,1841
11098,1579
11099,1737
11100,2000
11101,1866
11102,1581
11103,1680
11104,1995
11105,1939
11106,1631
11107,1647
11108,1962
11109,1963
11110,1642
11111,1584
11112,1903
11113,2002
11114,1715
11115,1584
11116,1855
11117,2031
11118,1773
11119,1571
11120,1803
11121,2031
11122,1823
11123,1574
11124,1742
11125,2032
11126,1899
11127,1599
11128,1695
11129,2001
11130,1968
11131,1701
11132,1745
11133,2083
11134,2107
11135,1791
11136,1726
11137,2030
11138,2134
11139,1851
11140,1717
11141,1979
11142,2120
11143,1803
11144,1574
11145,1799
11146,2057
11147,1856
11148,1584
11149,1733
11150,2021
11151,1887
11152,1579
11153,1658
11154,1968
11155,1911
11156,1604
11157,1616
11158,1954
11159,1970
11160,1648
11161,1589
11162,1872
11163,1971
11164,1670
11165,1504
11166,1744
11167,1959
11168,1862
11169,1909
11170,2444
11171,2979
11172,2890
11173,2530
11174,2527
11175,2720
11176,2416
11177,1843
11178,1655
11179,1824
11180,1771
11181,1535
11182,1643
11183,2000
11184,2045
11185,1729
11186,1648
11187,1929
11188,2033
11189,1761
11190,1617
11191,1874
11192,2064
11193,1808
11194,1603
11195,1810
11196,2057
11197,1873
11198,1618
11199,1776
11200,2064
11201,1942
11202,1648
11203,1727
11204,2043
11205,2000
11206,1696
11207,1693
11208,2011
11209,2064
11210,1756
11211,1674
11212,1998
11213,2138
11214,1840
11215,1682
11216,1951
11217,2154
11218,1915
11219,1710
11220,1926
11221,2192
11222,2000
11223,1731
11224,1887
11225,2194
11226,2082
11227,1788
11228,1877
11229,2219
11230,2192
11231,1873
11232,1863
11233,2195
11234,2257
11235,1949
11236,1872
11237,2177
11238,2302
11239,2021
11240,1856
11241,2111
11242,2284
11243,2006
11244,1759
11245,1938
11246,2160
11247,1936
11248,1633
11249,1753
11250,2001
11251,1871
11252,1554
11253,1616
11254,1904
11255,1876
11256,1570
11257,1563
11258,1867
11259,1909
11260,1595
11261,1505
11262,1803
11263,1925
11264,1643
11265,1473
11266,1739
11267,1938
11268,1711
11269,1478
11270,1691
11271,1953
11272,1776
11273,1491
11274,1642
11275,1948
11276,1845
11277,1531
11278,1601
11279,1921
11280,1904
11281,1599
11282,1582
11283,1901
11284,1952
11285,1647
11286,1535
11287,1850
11288,1981
11289,1711
11290,1535
11291,1793
11292,1987
11293,1748
11294,1523
11295,1733
11296,1989
11297,1824
11298,1535
11299,1685
11300,1982
11301,1875
11302,1566
11303,1630
11304,1936
11305,1918
11306,1609
11307,1586
11308,1892
11309,1955
11310,1648
11311,1535
11312,1840
11313,1968
11314,1687
11315,1501
11316,1779
11317,1988
11318,1760
11319,1520
11320,1722
11321,1977
11322,1792
11323,1515
11324,1654
11325,1947
11326,1866
11327,1561
11328,1614
11329,1938
11330,1916
11331,1584
11332,1556
11333,1879
11334,1951
11335,1647
11336,1535
11337,1843
11338,1987
11339,1705
11340,1534
11341,1799
11342,2013
11343,1766
11344,1517
11345,1712
11346,1987
11347,1834
11348,1558
11349,1675
11350,1979
11351,1889
11352,1583
11353,1635
11354,1962
11355,1947
11356,1622
11357,1600
11358,1922
11359,1991
11360,1694
11361,1583
11362,1871
11363,2006
11364,1729
11365,1535
11366,1798
11367,2018
11368,1800
11369,1567
11370,1759
11371,2023
11372,1861
11373,1583
11374,1712
11375,2030
11376,1949
11377,1671
11378,1738
11379,2090
11380,2089
11381,1751
11382,1712
11383,2032
11384,2122
11385,1815
11386,1727
11387,2031
11388,2135
11389,1791
11390,1588
11391,1825
11392,2063
11393,1840
11394,1584
11395,1753
11396,2022
11397,1867
11398,1585
11399,1696
11400,1991
11401,1898
11402,1578
11403,1616
11404,1951
11405,1949
11406,1637
11407,1588
11408,1915
11409,1983
11410,1650
11411,1488
11412,1750
11413,1931
11414,1777
11415,1801
11416,2345
11417,2863
11418,2807
11419,2544
11420,2597
11421,2772
11422,2480
11423,1942
11424,1778
11425,1897
11426,1767
11427,1489
11428,1614
11429,2003
11430,2041
11431,1727
11432,1665
11433,1966
11434,2033
11435,1735
11436,1613
11437,1903
11438,2061
11439,1785
11440,1587
11441,1841
11442,2073
11443,1849
11444,1603
11445,1779
11446,2064
11447,1919
11448,1631
11449,1746
11450,2064
11451,1990
11452,1675
11453,1703
11454,2027
11455,2059
11456,1749
11457,1705
11458,2007
11459,2103
11460,1823
11461,1707
11462,2000
11463,2169
11464,1904
11465,1712
11466,1942
11467,2183
11468,1984
11469,1735
11470,1907
11471,2195
11472,2065
11473,1776
11474,1886
11475,2220
11476,2161
11477,1856
11478,1883
11479,2224
11480,2254
11481,1935
11482,1872
11483,2189
11484,2297
11485,2000
11486,1865
11487,2128
11488,2272
11489,1984
11490,1767
11491,1975
11492,2186
11493,1937
11494,1654
11495,1796
11496,2064
11497,1898
11498,1582
11499,1666
11500,1959
11501,1887
11502,1562
11503,1584
11504,1904
11505,1925
11506,1607
11507,1533
11508,1841
11509,1937
11510,1631
11511,1488
11512,1776
11513,1953
11514,1709
11515,1502
11516,1742
11517,1983
11518,1776
11519,1507
11520,1683
11521,1966
11522,1831
11523,1520
11524,1635
11525,1957
11526,1899
11527,1579
11528,1611
11529,1940
11530,1951
11531,1616
11532,1570
11533,1885
11534,2000
11535,1712
11536,1586
11537,1869
11538,2033
11539,1764
11540,1535
11541,1776
11542,1999
11543,1798
11544,1535
11545,1711
11546,1997
11547,1860
11548,1564
11549,1648
11550,1967
11551,1915
11552,1601
11553,1611
11554,1936
11555,1967
11556,1637
11557,1553
11558,1869
11559,1981
11560,1691
11561,1535
11562,1807
11563,1983
11564,1739
11565,1535
11566,1775
11567,2027
11568,1819
11569,1535
11570,1711
11571,1985
11572,1844
11573,1535
11574,1627
11575,1952
11576,1901
11577,1581
11578,1599
11579,1935
11580,1965
11581,1634
11582,1556
11583,1867
11584,1997
11585,1719
11586,1568
11587,1840
11588,2032
11589,1773
11590,1535
11591,1775
11592,2027
11593,1823
11594,1557
11595,1723
11596,2022
11597,1898
11598,1600
11599,1685
11600,1997
11601,1947
11602,1634
11603,1622
11604,1951
11605,1999
11606,1683
11607,1605
11608,1911
11609,2045
11610,1760
11611,1601
11612,1867
11613,2062
11614,1808
11615,1577
11616,1793
11617,2055
11618,1867
11619,1603
11620,1744
11621,2047
11622,1968
11623,1707
11624,1805
11625,2145
11626,2098
11627,1755
11628,1738
11629,2075
11630,2130
11631,1840
11632,1771
11633,2044
11634,2119
11635,1779
11636,1604
11637,1856
11638,2068
11639,1828
11640,1603
11641,1802
11642,2047
11643,1855
11644,1555
11645,1698
11646,1997
11647,1905
11648,1605
11649,1680
11650,1978
11651,1951
11652,1643
11653,1623
11654,1942
11655,1988
11656,1664
11657,1535
11658,1826
11659,2031
11660,1920
11661,2047
11662,2618
11663,3071
11664,2834
11665,2454
11666,2533
11667,2701
11668,2331
11669,1787
11670,1692
11671,1887
11672,1808
11673,1583
11674,1713
11675,2079
11676,2046
11677,1711
11678,1681
11679,1988
11680,2042
11681,1732
11682,1648
11683,1951
11684,2081
11685,1782
11686,1615
11687,1889
11688,2105
11689,1857
11690,1623
11691,1829
11692,2096
11693,1923
11694,1647
11695,1779
11696,2074
11697,1982
11698,1683
11699,1745
11700,2073
11701,2076
11702,1751
11703,1730
11704,2055
11705,2125
11706,1828
11707,1649
11708,2027
11709,2177
11710,1895
11711,1728
11712,1996
11713,2209
11714,1968
11715,1737
11716,1961
11717,2253
11718,2078
11719,1794
11720,1916
11721,2224
11722,2154
11723,1862
11724,1923
11725,2245
11726,2238
11727,1917
11728,1901
11729,2223
11730,2293
11731,1962
11732,1843
11733,2123
11734,2253
11735,1954
11736,1757
11737,1999
11738,2189
11739,1930
11740,1666
11741,1851
11742,2103
11743,1904
11744,1586
11745,1707
11746,2022
11747,1919
11748,1593
11749,1633
11750,1950
11751,1926
11752,1605
11753,1569
11754,1898
11755,1965
11756,1653
11757,1535
11758,1843
11759,1985
11760,1713
11761,1529
11762,1782
11763,2011
11764,1790
11765,1535
11766,1744
11767,2017
11768,1857
11769,1577
11770,1691
11771,1998
11772,1910
11773,1607
11774,1658
11775,1979
11776,1968
11777,1643
11778,1601
11779,1920
11780,2013
11781,1722
11782,1606
11783,1890
11784,2039
11785,1754
11786,1535
11787,1801
11788,2023
11789,1819
11790,1578
11791,1763
11792,2029
11793,1877
11794,1584
11795,1711
11796,2007
11797,1919
11798,1603
11799,1648
11800,1977
11801,1971
11802,1652
11803,1612
11804,1931
11805,2001
11806,1695
11807,1574
11808,1857
11809,2015
11810,1744
11811,1567
11812,1806
11813,2016
11814,1785
11815,1535
11816,1745
11817,2032
11818,1867
11819,1572
11820,1693
11821,1987
11822,1893
11823,1600
11824,1648
11825,1968
11826,1970
11827,1650
11828,1611
11829,1936
11830,2021
11831,1698
11832,1570
11833,1855
11834,2033
11835,1776
11836,1583
11837,1827
11838,2054
11839,1840
11840,1586
11841,1762
11842,2039
11843,1885
11844,1587
11845,1700
11846,2010
11847,1937
11848,1630
11849,1666
11850,1995
11851,1999
11852,1667
11853,1618
11854,1936
11855,2030
11856,1737
11857,1616
11858,1910
11859,2091
11860,1806
11861,1622
11862,1887
11863,2141
11864,1957
11865,1723
11866,1902
11867,2166
11868,1998
11869,1699
11870,1821
11871,2148
11872,2085
11873,1735
11874,1712
11875,2003
11876,2017
11877,1696
11878,1642
11879,1945
11880,2023
11881,1723
11882,1584
11883,1857
11884,2029
11885,1761
11886,1535
11887,1802
11888,2037
11889,1829
11890,1572
11891,1738
11892,2018
11893,1881
11894,1585
11895,1671
11896,1968
11897,1866
11898,1521
11899,1657
11900,2214
11901,2534
11902,2493
11903,2583
11904,2903
11905,2838
11906,2411
11907,2157
11908,2245
11909,2185
11910,1744
11911,1456
11912,1703
11913,1990
11914,1840
11915,1618
11916,1808
11917,2091
11918,1938
11919,1638
11920,1724
11921,2022
11922,1968
11923,1669
11924,1707
11925,2019
11926,2035
